# Output from CTFFind version 4.1.9, run on 2019-11-03 19:40:15
# Input file: stack11_bm3d_averaged_1_4.75_0_1000_half.mrc ; Number of micrographs: 1
# Pixel size: 3.000 Angstroms ; acceleration voltage: 300.0 keV ; spherical aberration: 0.00 mm ; amplitude contrast: 0.07
# Box size: 512 pixels ; min. res.: 30.0 Angstroms ; max. res.: 5.0 Angstroms ; min. def.: 5000.0 um; max. def. 50000.0 um; num. frames averaged: 1
# 6 lines per micrograph: #1 - spatial frequency (1/Angstroms); #2 - 1D rotational average of spectrum (assuming no astigmatism); #3 - 1D rotational average of spectrum; #4 - CTF fit; #5 - cross-correlation between spectrum and CTF fit; #6 - 2sigma of expected cross correlation of noise
0.000000 0.000651 0.001302 0.001953 0.002604 0.003255 0.003906 0.004557 0.005208 0.005859 0.006510 0.007161 0.007812 0.008464 0.009115 0.009766 0.010417 0.011068 0.011719 0.012370 0.013021 0.013672 0.014323 0.014974 0.015625 0.016276 0.016927 0.017578 0.018229 0.018880 0.019531 0.020182 0.020833 0.021484 0.022135 0.022786 0.023438 0.024089 0.024740 0.025391 0.026042 0.026693 0.027344 0.027995 0.028646 0.029297 0.029948 0.030599 0.031250 0.031901 0.032552 0.033203 0.033854 0.034505 0.035156 0.035807 0.036458 0.037109 0.037760 0.038411 0.039062 0.039714 0.040365 0.041016 0.041667 0.042318 0.042969 0.043620 0.044271 0.044922 0.045573 0.046224 0.046875 0.047526 0.048177 0.048828 0.049479 0.050130 0.050781 0.051432 0.052083 0.052734 0.053385 0.054036 0.054688 0.055339 0.055990 0.056641 0.057292 0.057943 0.058594 0.059245 0.059896 0.060547 0.061198 0.061849 0.062500 0.063151 0.063802 0.064453 0.065104 0.065755 0.066406 0.067057 0.067708 0.068359 0.069010 0.069661 0.070312 0.070964 0.071615 0.072266 0.072917 0.073568 0.074219 0.074870 0.075521 0.076172 0.076823 0.077474 0.078125 0.078776 0.079427 0.080078 0.080729 0.081380 0.082031 0.082682 0.083333 0.083984 0.084635 0.085286 0.085938 0.086589 0.087240 0.087891 0.088542 0.089193 0.089844 0.090495 0.091146 0.091797 0.092448 0.093099 0.093750 0.094401 0.095052 0.095703 0.096354 0.097005 0.097656 0.098307 0.098958 0.099609 0.100260 0.100911 0.101562 0.102214 0.102865 0.103516 0.104167 0.104818 0.105469 0.106120 0.106771 0.107422 0.108073 0.108724 0.109375 0.110026 0.110677 0.111328 0.111979 0.112630 0.113281 0.113932 0.114583 0.115234 0.115885 0.116536 0.117188 0.117839 0.118490 0.119141 0.119792 0.120443 0.121094 0.121745 0.122396 0.123047 0.123698 0.124349 0.125000 0.125651 0.126302 0.126953 0.127604 0.128255 0.128906 0.129557 0.130208 0.130859 0.131510 0.132161 0.132812 0.133464 0.134115 0.134766 0.135417 0.136068 0.136719 0.137370 0.138021 0.138672 0.139323 0.139974 0.140625 0.141276 0.141927 0.142578 0.143229 0.143880 0.144531 0.145182 0.145833 0.146484 0.147135 0.147786 0.148438 0.149089 0.149740 0.150391 0.151042 0.151693 0.152344 0.152995 0.153646 0.154297 0.154948 0.155599 0.156250 0.156901 0.157552 0.158203 0.158854 0.159505 0.160156 0.160807 0.161458 0.162109 0.162760 0.163411 0.164062 0.164714 0.165365 0.166016 0.166667 0.167318 0.167969 0.168620 0.169271 0.169922 0.170573 0.171224 0.171875 0.172526 0.173177 0.173828 0.174479 0.175130 0.175781 0.176432 0.177083 0.177734 0.178385 0.179036 0.179688 0.180339 0.180990 0.181641 0.182292 0.182943 0.183594 0.184245 0.184896 0.185547 0.186198 0.186849 0.187500 0.188151 0.188802 0.189453 0.190104 0.190755 0.191406 0.192057 0.192708 0.193359 0.194010 0.194661 0.195312 0.195964 0.196615 0.197266 0.197917 0.198568 0.199219 0.199870 0.200521 0.201172 0.201823 0.202474 0.203125 0.203776 0.204427 0.205078 0.205729 0.206380 0.207031 0.207682 0.208333 0.208984 0.209635 0.210286 0.210938 0.211589 0.212240 0.212891 0.213542 0.214193 0.214844 0.215495 0.216146 0.216797 0.217448 0.218099 0.218750 0.219401 0.220052 0.220703 0.221354 0.222005 0.222656 0.223307 0.223958 0.224609 0.225260 0.225911 0.226562 0.227214 0.227865 0.228516 0.229167 0.229818 0.230469 0.231120 0.231771 0.232422 0.233073 0.233724 0.234375 0.235026 0.235677
       0.33776        0.33776        0.33776        0.33776        0.33776        0.33776        0.33776        0.33776        0.33776        0.33776        0.33776        0.33776        0.33776        0.33776        0.33776        0.33776        0.33776        0.33776        0.33776        0.33776        0.33776        0.33776        0.33776        0.33776        0.33776        0.33776        0.33776        0.33776        0.33776        0.33776        0.33776        0.33776        0.33776        0.33776        0.33776        0.33776        0.33776        0.33776        0.33776        0.33776        0.33776        0.33776        0.33776        0.33776        0.33776        0.33776        0.33776        0.33776        0.33776        0.33776        0.33776        0.69455        0.85942        0.53427        0.10400       -0.03292       -0.39627       -0.18340       -0.28903       -0.11334       -0.05690       -0.11055       -0.05425       -0.17539       -0.21043       -0.22335       -0.31223       -0.32365       -0.45198       -0.36542       -0.43318       -0.42766       -0.40135       -0.42317       -0.46627       -0.51825       -0.56271       -0.56626       -0.53918       -0.36816       -0.34097       -0.30222       -0.28147       -0.19026       -0.17928        0.05256        0.13048        0.16114        0.25586        0.37892        0.45546        0.52018        0.58968        0.58756        0.57696        0.69629        0.80502        0.70976        0.74072        0.62830        0.56753        0.48273        0.42599        0.50938        0.39244        0.25400        0.10812        0.09703        0.07503       -0.02675        0.02392        0.03738       -0.00711        0.01914        0.01459        0.23649        0.26756        0.29357        0.43007        0.45132        0.41073        0.58373        0.62551        0.65086        0.73147        0.67970        0.64979        0.66671        0.56383        0.46745        0.41845        0.30014        0.25089        0.17370        0.13127        0.05320        0.05098        0.05562        0.09191        0.14929        0.23611        0.28533        0.40865        0.45881        0.48348        0.57778        0.60975        0.63810        0.62014        0.56190        0.45726        0.46974        0.37622        0.26321        0.20323        0.15730        0.16202        0.14558        0.14140        0.16884        0.30401        0.31615        0.39219        0.43161        0.42895        0.49118        0.55737        0.55303        0.49408        0.45381        0.40684        0.35869        0.32973        0.29553        0.24471        0.23779        0.23204        0.24344        0.21806        0.30313        0.36078        0.38709        0.43981        0.45532        0.47166        0.42436        0.40289        0.40271        0.36000        0.31546        0.27064        0.26284        0.25926        0.22829        0.27804        0.27843        0.34443        0.37540        0.41665        0.47563        0.41405        0.42645        0.43218        0.40627        0.34519        0.32237        0.29203        0.31224        0.26815        0.30955        0.30329        0.32193        0.33031        0.35418        0.31795        0.39702        0.41643        0.37860        0.34545        0.37141        0.31109        0.28936        0.29479        0.31877        0.30087        0.31335        0.33135        0.34400        0.34039        0.36763        0.36875        0.40291        0.37942        0.33019        0.33702        0.29425        0.28164        0.32094        0.31553        0.32496        0.33353        0.33059        0.37348        0.32768        0.32833        0.32900        0.33459        0.29935        0.30798        0.27310        0.29890        0.32118        0.30199        0.32299        0.34497        0.35200        0.28713        0.32377        0.29012        0.30163        0.27989        0.24099        0.29605        0.29698        0.34115        0.33347        0.33239        0.32286        0.34550        0.30696        0.34289        0.31802        0.30645        0.27805        0.32579        0.31216        0.35653        0.32314        0.33336        0.34109        0.29407        0.27444        0.30958        0.24592        0.22386        0.33234        0.31806        0.34894        0.33595        0.35123        0.32190        0.33976        0.34272        0.26276        0.24933        0.30855        0.30179        0.30757        0.32015        0.33886        0.33373        0.29996        0.29125        0.34009        0.31725        0.30056        0.27843        0.32052        0.34659        0.39440        0.33817        0.30197        0.27741        0.30430        0.27753        0.29155        0.26740        0.25283        0.31044        0.33175        0.34285        0.34810        0.31655        0.28418        0.29277        0.26050        0.26588        0.24827        0.31744        0.27853        0.23052        0.31615        0.30870        0.26545        0.28886        0.20936        0.21445        0.25392        0.18719        0.25379        0.32077        0.23753        0.21916        0.31177        0.32087        0.32230        0.31769        0.25622        0.22843        0.18283        0.21459        0.19076        0.21680        0.21921        0.26087        0.31467        0.29217        0.22158        0.11699        0.06386       -0.01643       -0.10483       -0.62363
2.735544 2.706564 2.677742 2.649079 2.620573 2.592227 2.564039 2.536009 2.508137 2.480424 2.452869 2.425472 2.398234 2.371154 2.344233 2.317470 2.290865 2.264419 2.238131 2.212001 2.186030 2.160217 2.134562 2.109066 2.083728 2.058549 2.033527 2.008665 1.983960 1.959414 1.935026 1.910797 1.886726 1.862813 1.839059 1.815463 1.792025 1.768746 1.745625 1.722663 1.699859 1.677213 1.654725 1.632396 1.610225 1.588213 1.566359 1.544663 1.523126 1.501747 1.480526 1.696824 2.115374 1.677266 1.173794 1.039065 0.443448 0.843165 0.561268 0.844234 0.804816 0.814618 0.756876 0.741907 0.591070 0.550839 0.497187 0.429777 0.242849 0.370610 0.202788 0.326840 0.224088 0.201783 0.174879 0.038661 0.017116 0.016038 -0.067516 0.129081 0.227259 0.187744 0.172383 0.330812 0.184841 0.512764 0.617620 0.616330 0.633869 0.872427 0.829142 0.939092 0.919528 1.018119 0.983004 1.075504 1.160686 1.042382 1.150424 0.912700 0.925989 0.790071 0.649389 0.796417 0.699378 0.480312 0.329248 0.249921 0.258843 0.148310 0.123394 0.158049 0.104014 0.127990 0.072837 0.254838 0.360745 0.343838 0.472876 0.548003 0.421690 0.583513 0.723153 0.674705 0.731295 0.710560 0.720635 0.659139 0.600061 0.509410 0.379739 0.278412 0.221547 0.083284 0.120159 -0.088738 -0.045054 -0.060983 -0.072546 -0.019748 0.140259 0.068902 0.243186 0.305810 0.339470 0.395983 0.503409 0.481356 0.481344 0.494123 0.308751 0.293152 0.284827 0.087280 0.043944 -0.067222 -0.009489 -0.060259 -0.090369 -0.085097 0.037059 0.082191 0.122503 0.212334 0.229812 0.243681 0.290916 0.436506 0.393453 0.267409 0.241561 0.221596 0.152041 0.144576 0.114486 0.002826 0.020481 0.066703 -0.000767 0.061308 0.145229 0.147734 0.234689 0.247612 0.282925 0.185838 0.217559 0.145742 0.168301 0.117977 0.050167 -0.006731 0.013234 -0.001940 -0.043153 0.061674 0.023813 0.125068 0.151529 0.192288 0.192956 0.157106 0.159786 0.178730 0.128192 0.058864 0.000608 0.053212 0.025966 -0.018545 0.035740 0.039341 0.057571 0.051214 0.062976 0.074584 0.130468 0.150404 0.055719 0.056038 0.055350 0.015766 -0.024340 0.015487 0.020830 0.005594 0.015469 0.045472 0.059076 0.056085 0.084389 0.061366 0.142198 0.060062 0.027843 0.037767 -0.034350 0.003279 0.042730 0.002965 0.036004 0.050346 0.022147 0.114815 0.031584 0.006280 0.055077 0.004172 0.012126 0.005046 -0.022627 0.026810 0.007666 0.005655 0.055942 0.056244 0.052975 0.032714 0.035877 0.033159 0.023900 -0.014806 -0.024899 0.032098 0.051985 0.082435 0.085705 0.057866 0.085420 0.109458 0.057533 0.114817 0.088529 0.037708 0.037538 0.102896 0.074216 0.117927 0.093424 0.070232 0.132510 0.057152 0.019556 0.096203 -0.027291 -0.005041 0.109778 0.058655 0.150901 0.089352 0.112593 0.048490 0.091490 0.093724 -0.012382 -0.028914 0.060589 0.060703 0.045204 0.045453 0.107689 0.068706 0.000865 0.049438 0.068954 0.056822 0.048841 -0.018892 0.074712 0.081395 0.136079 0.028980 0.014429 -0.020694 0.011222 -0.018994 0.002449 -0.043998 -0.033943 0.011299 0.047093 0.016042 0.037865 -0.008123 -0.036841 -0.043067 -0.028834 -0.070957 -0.062860 -0.005313 0.022722 -0.095107 0.016178 -0.030373 -0.066296 0.006183 -0.131356 -0.078460 -0.079540 -0.182344 -0.035855 0.049045 -0.046910 -0.152779 0.046710 0.072596 -0.033058 0.070035 -0.049317 0.249176 0.147955 0.225253 0.245890 0.250718 0.234957 0.294190 0.303326 0.334937 0.202223 0.212281 0.088990 -0.022286 -0.677768
0.072396 0.072899 0.074407 0.076919 0.080436 0.084957 0.090479 0.097002 0.104524 0.113040 0.122550 0.133046 0.144526 0.156982 0.170406 0.184789 0.200120 0.216387 0.233574 0.251664 0.270637 0.290471 0.311138 0.332610 0.354853 0.377831 0.401502 0.425819 0.450733 0.476187 0.502121 0.528466 0.555151 0.582095 0.609215 0.636418 0.663606 0.690674 0.717509 0.743993 0.770000 0.795398 0.820048 0.843805 0.866517 0.888027 0.908173 0.926789 0.943702 0.958740 0.971725 0.982480 0.990827 0.996588 0.999588 0.999656 0.996626 0.990338 0.980642 0.967399 0.950479 0.929771 0.905179 0.876625 0.844052 0.807429 0.766747 0.722027 0.673320 0.620706 0.564303 0.504261 0.440770 0.374055 0.304384 0.232062 0.157437 0.080896 0.002866 0.076186 0.155757 0.235309 0.314269 0.392037 0.467986 0.541470 0.611826 0.678381 0.740460 0.797392 0.848516 0.893193 0.930811 0.960798 0.982625 0.995823 0.999988 0.994792 0.979991 0.955436 0.921078 0.876978 0.823315 0.760388 0.688620 0.608565 0.520904 0.426446 0.326126 0.220997 0.112226 0.001082 0.111078 0.222819 0.332648 0.439035 0.540428 0.635283 0.722085 0.799377 0.865782 0.920036 0.961012 0.987751 0.999482 0.995651 0.975941 0.940292 0.888914 0.822301 0.741236 0.646791 0.540323 0.423462 0.298097 0.166349 0.030540 0.106840 0.243179 0.375787 0.501956 0.619008 0.724362 0.815588 0.890476 0.947089 0.983827 0.999474 0.993250 0.964847 0.914458 0.842801 0.751121 0.641184 0.515265 0.376100 0.226851 0.071035 0.087549 0.244909 0.396956 0.539614 0.668929 0.781186 0.873023 0.941542 0.984412 0.999960 0.987248 0.946136 0.877312 0.782314 0.663513 0.524074 0.367894 0.199504 0.023950 0.153349 0.326760 0.490616 0.639408 0.767972 0.871678 0.946616 0.989756 0.999088 0.973737 0.914033 0.821549 0.699086 0.550620 0.381193 0.196767 0.004023 0.189861 0.377478 0.551475 0.704840 0.831206 0.925123 0.982315 0.999905 0.976578 0.912691 0.810319 0.673228 0.506765 0.317677 0.113877 0.095891 0.302401 0.496350 0.668787 0.811533 0.917590 0.981508 0.999697 0.970660 0.895131 0.776116 0.618814 0.430433 0.219894 0.002570 0.225886 0.438693 0.629914 0.789350 0.908242 0.979786 0.999552 0.965807 0.879680 0.745201 0.569151 0.360778 0.131343 0.106461 0.339192 0.553416 0.736493 0.877340 0.967137 0.999920 0.973025 0.887342 0.747367 0.561025 0.339279 0.095522 0.155192 0.397069 0.614560 0.793380 0.921477 0.989878 0.993379 0.930990 0.806116 0.626457 0.403583 0.152254 0.110509 0.366580 0.597943 0.787993 0.922752 0.991945 0.989847 0.915815 0.774472 0.575507 0.333070 0.064839 0.209243 0.468408 0.692671 0.864368 0.969603 0.999438 0.950715 0.826463 0.635805 0.393375 0.118259 0.167441 0.440370 0.677821 0.859653 0.970039 0.998924 0.943014 0.806229 0.599531 0.340148 0.050204 0.245107 0.519697 0.748879 0.911637 0.992609 0.983621 0.884607 0.703804 0.457174 0.167101 0.139592 0.434059 0.688160 0.877156 0.982208 0.992315 0.905584 0.729615 0.480967 0.183699 0.132874 0.437027 0.697802 0.888179 0.987952 0.985976 0.881513 0.684548 0.414964 0.100645 0.225331 0.528122 0.774864 0.938279 0.999778 0.951695 0.798358 0.555873 0.250552 0.083817 0.409670 0.689846 0.891874 0.991803 0.977172 0.848688 0.620415 0.318401 0.022197 0.361100 0.657656 0.875741 0.988233 0.980517 0.852518 0.619016 0.308089 0.042116 0.387988 0.685852 0.897519 0.995266 0.965612 0.811329 0.551413 0.218897 0.143210
1.000000 1.000000 1.000000 1.000000 1.000000 1.000000 1.000000 1.000000 1.000000 1.000000 1.000000 1.000000 1.000000 1.000000 1.000000 1.000000 1.000000 1.000000 1.000000 1.000000 1.000000 1.000000 1.000000 1.000000 1.000000 1.000000 1.000000 1.000000 1.000000 1.000000 1.000000 1.000000 1.000000 1.000000 1.000000 1.000000 1.000000 1.000000 1.000000 1.000000 1.000000 1.000000 1.000000 1.000000 1.000000 1.000000 1.000000 1.000000 1.000000 1.000000 1.000000 1.000000 0.920044 0.920044 0.920044 0.912138 0.912138 0.912138 0.912138 0.912138 0.912138 0.912138 0.912138 0.912138 0.912138 0.912138 0.912138 0.912138 0.912138 0.912138 0.912138 0.912138 0.912138 0.912138 0.912138 0.912138 0.912138 0.912138 0.912138 0.912138 0.912138 0.912138 0.912138 0.912138 0.912138 0.912138 0.912138 0.912138 0.912138 0.912138 0.912138 0.912138 0.912138 0.912138 0.912138 0.912138 0.941313 0.942765 0.950932 0.950581 0.949978 0.947883 0.946712 0.946350 0.946243 0.946570 0.947276 0.948240 0.954502 0.955732 0.960180 0.961838 0.962585 0.963227 0.963878 0.963460 0.954747 0.954544 0.953178 0.952593 0.955120 0.954145 0.953336 0.954303 0.954180 0.954940 0.954845 0.954135 0.953032 0.951918 0.950961 0.950535 0.950320 0.951054 0.951472 0.952957 0.956274 0.956852 0.956979 0.957134 0.957235 0.958529 0.957441 0.956951 0.944781 0.944571 0.943495 0.943569 0.946748 0.946709 0.947279 0.947880 0.949581 0.949935 0.943063 0.941224 0.932279 0.929773 0.926016 0.920337 0.915960 0.917967 0.919680 0.920722 0.921225 0.916520 0.916309 0.913663 0.910188 0.912784 0.912334 0.913356 0.914858 0.913354 0.912399 0.911504 0.909448 0.901169 0.888790 0.887764 0.888079 0.893155 0.894469 0.893446 0.895598 0.883799 0.867231 0.850317 0.852247 0.855837 0.846716 0.844029 0.844473 0.845311 0.849089 0.841875 0.839112 0.834743 0.824794 0.817027 0.810536 0.804007 0.805814 0.801015 0.791308 0.788496 0.814606 0.808195 0.817593 0.822316 0.821019 0.819838 0.816255 0.810172 0.786664 0.785589 0.773753 0.752501 0.752970 0.751250 0.750194 0.747522 0.753944 0.743920 0.741236 0.725154 0.724877 0.728617 0.731458 0.729933 0.725447 0.729284 0.734041 0.715981 0.705005 0.693439 0.697752 0.698184 0.702429 0.702967 0.679734 0.648022 0.626093 0.645364 0.650344 0.619602 0.643462 0.657107 0.635913 0.632977 0.623418 0.625518 0.617570 0.621069 0.620886 0.621969 0.625273 0.640331 0.628472 0.625524 0.633575 0.633463 0.645287 0.641673 0.643906 0.615018 0.615383 0.637916 0.641595 0.626650 0.644163 0.632357 0.645111 0.680584 0.680315 0.648659 0.642730 0.623508 0.583324 0.572527 0.567599 0.578138 0.609828 0.596814 0.566272 0.540769 0.545284 0.559750 0.566747 0.568833 0.552273 0.559389 0.550743 0.527747 0.535258 0.546444 0.546456 0.534324 0.520727 0.519901 0.524949 0.545729 0.536907 0.495607 0.513143 0.510133 0.502958 0.445820 0.458005 0.442102 0.430864 0.387618 0.397891 0.408293 0.395291 0.316684 0.297111 0.297460 0.297841 0.295733 0.279390 0.254693 0.245532 0.215665 0.216011 0.203575 0.179943 0.175867 0.159177 0.148918 0.152111 0.118561 0.167230 0.229439 0.230587 0.230587 0.230587 0.230587 0.230587 0.230587 0.221799 0.221799 0.221799 0.221799 0.221799 0.221799 0.221799 0.221799 0.221799 0.244680 0.244680 0.244680 0.244680 0.244680 0.244680 0.244680 0.244680 0.244680 0.244680 0.244680 0.244680 0.244680 0.244680
0.000000 0.000000 0.000000 0.000000 0.000000 0.000000 0.000000 0.000000 0.000000 0.000000 0.000000 0.000000 0.000000 0.000000 0.000000 0.000000 0.000000 0.000000 0.000000 0.000000 0.000000 0.000000 0.000000 0.000000 0.000000 7.000000 4.000000 0.000000 0.000000 0.000000 0.000000 0.000000 0.000000 0.000000 0.000000 0.000000 0.000000 0.000000 0.000000 0.000000 0.000000 0.000000 0.000000 0.000000 0.000000 0.000000 0.000000 0.000000 0.000000 0.000000 0.000000 0.000000 0.180334 0.180334 0.180334 0.199007 0.199007 0.199007 0.199007 0.199007 0.199007 0.199007 0.199007 0.199007 0.199007 0.199007 0.199007 0.199007 0.199007 0.199007 0.199007 0.199007 0.199007 0.199007 0.199007 0.199007 0.199007 0.199007 0.199007 0.199007 0.199007 0.199007 0.199007 0.199007 0.199007 0.199007 0.199007 0.199007 0.199007 0.199007 0.199007 0.199007 0.199007 0.199007 0.199007 0.199007 0.225018 0.225018 0.225018 0.225018 0.225018 0.225018 0.225018 0.225018 0.225018 0.225018 0.225018 0.225018 0.225018 0.225018 0.225018 0.225018 0.225018 0.225018 0.225018 0.225018 0.225018 0.225018 0.225018 0.225018 0.225018 0.225018 0.225018 0.225018 0.225018 0.244339 0.244339 0.244339 0.244339 0.244339 0.244339 0.244339 0.244339 0.244339 0.244339 0.244339 0.244339 0.244339 0.244339 0.244339 0.244339 0.244339 0.244339 0.244339 0.244339 0.244339 0.244339 0.244339 0.251976 0.251976 0.251976 0.251976 0.251976 0.251976 0.251976 0.251976 0.251976 0.251976 0.251976 0.251976 0.251976 0.251976 0.251976 0.251976 0.251976 0.251976 0.251976 0.251976 0.264906 0.264906 0.264906 0.264906 0.264906 0.264906 0.264906 0.264906 0.264906 0.264906 0.264906 0.264906 0.264906 0.264906 0.264906 0.264906 0.264906 0.264906 0.264906 0.264906 0.264906 0.264906 0.264906 0.264906 0.264906 0.264906 0.264906 0.264906 0.264906 0.264906 0.264906 0.264906 0.264906 0.264906 0.264906 0.264906 0.264906 0.264906 0.264906 0.264906 0.264906 0.264906 0.264906 0.264906 0.264906 0.264906 0.264906 0.264906 0.264906 0.264906 0.264906 0.264906 0.264906 0.264906 0.264906 0.264906 0.264906 0.264906 0.264906 0.264906 0.264906 0.264906 0.256074 0.256074 0.256074 0.256074 0.256074 0.256074 0.256074 0.256074 0.256074 0.256074 0.256074 0.256074 0.256074 0.256074 0.269680 0.269680 0.269680 0.269680 0.269680 0.269680 0.269680 0.269680 0.269680 0.269680 0.269680 0.269680 0.264906 0.264906 0.264906 0.264906 0.264906 0.264906 0.264906 0.264906 0.264906 0.264906 0.264906 0.264906 0.269680 0.269680 0.269680 0.269680 0.269680 0.269680 0.269680 0.269680 0.269680 0.269680 0.269680 0.264906 0.264906 0.264906 0.264906 0.264906 0.264906 0.264906 0.264906 0.264906 0.264906 0.264906 0.256074 0.256074 0.256074 0.256074 0.256074 0.256074 0.256074 0.256074 0.256074 0.256074 0.256074 0.264906 0.264906 0.264906 0.264906 0.264906 0.264906 0.264906 0.264906 0.264906 0.264906 0.260378 0.260378 0.260378 0.260378 0.260378 0.260378 0.260378 0.260378 0.260378 0.260378 0.256074 0.256074 0.256074 0.256074 0.256074 0.256074 0.256074 0.256074 0.256074 0.256074 0.260378 0.260378 0.260378 0.260378 0.260378 0.260378 0.260378 0.260378 0.260378 0.256074 0.256074 0.256074 0.256074 0.256074 0.256074 0.256074 0.256074 0.256074 0.251976 0.251976 0.251976 0.251976 0.251976 0.251976 0.251976 0.251976 0.251976 0.251976 0.251976 0.251976 0.251976 0.251976
