# Output from CTFFind version 4.1.9, run on 2019-11-03 20:04:06
# Input file: stack11_bm3d_averaged_1_10_0_250_half.mrc ; Number of micrographs: 1
# Pixel size: 3.000 Angstroms ; acceleration voltage: 300.0 keV ; spherical aberration: 0.00 mm ; amplitude contrast: 0.07
# Box size: 512 pixels ; min. res.: 30.0 Angstroms ; max. res.: 5.0 Angstroms ; min. def.: 5000.0 um; max. def. 50000.0 um; num. frames averaged: 1
# 6 lines per micrograph: #1 - spatial frequency (1/Angstroms); #2 - 1D rotational average of spectrum (assuming no astigmatism); #3 - 1D rotational average of spectrum; #4 - CTF fit; #5 - cross-correlation between spectrum and CTF fit; #6 - 2sigma of expected cross correlation of noise
0.000000 0.000651 0.001302 0.001953 0.002604 0.003255 0.003906 0.004557 0.005208 0.005859 0.006510 0.007161 0.007812 0.008464 0.009115 0.009766 0.010417 0.011068 0.011719 0.012370 0.013021 0.013672 0.014323 0.014974 0.015625 0.016276 0.016927 0.017578 0.018229 0.018880 0.019531 0.020182 0.020833 0.021484 0.022135 0.022786 0.023438 0.024089 0.024740 0.025391 0.026042 0.026693 0.027344 0.027995 0.028646 0.029297 0.029948 0.030599 0.031250 0.031901 0.032552 0.033203 0.033854 0.034505 0.035156 0.035807 0.036458 0.037109 0.037760 0.038411 0.039062 0.039714 0.040365 0.041016 0.041667 0.042318 0.042969 0.043620 0.044271 0.044922 0.045573 0.046224 0.046875 0.047526 0.048177 0.048828 0.049479 0.050130 0.050781 0.051432 0.052083 0.052734 0.053385 0.054036 0.054688 0.055339 0.055990 0.056641 0.057292 0.057943 0.058594 0.059245 0.059896 0.060547 0.061198 0.061849 0.062500 0.063151 0.063802 0.064453 0.065104 0.065755 0.066406 0.067057 0.067708 0.068359 0.069010 0.069661 0.070312 0.070964 0.071615 0.072266 0.072917 0.073568 0.074219 0.074870 0.075521 0.076172 0.076823 0.077474 0.078125 0.078776 0.079427 0.080078 0.080729 0.081380 0.082031 0.082682 0.083333 0.083984 0.084635 0.085286 0.085938 0.086589 0.087240 0.087891 0.088542 0.089193 0.089844 0.090495 0.091146 0.091797 0.092448 0.093099 0.093750 0.094401 0.095052 0.095703 0.096354 0.097005 0.097656 0.098307 0.098958 0.099609 0.100260 0.100911 0.101562 0.102214 0.102865 0.103516 0.104167 0.104818 0.105469 0.106120 0.106771 0.107422 0.108073 0.108724 0.109375 0.110026 0.110677 0.111328 0.111979 0.112630 0.113281 0.113932 0.114583 0.115234 0.115885 0.116536 0.117188 0.117839 0.118490 0.119141 0.119792 0.120443 0.121094 0.121745 0.122396 0.123047 0.123698 0.124349 0.125000 0.125651 0.126302 0.126953 0.127604 0.128255 0.128906 0.129557 0.130208 0.130859 0.131510 0.132161 0.132812 0.133464 0.134115 0.134766 0.135417 0.136068 0.136719 0.137370 0.138021 0.138672 0.139323 0.139974 0.140625 0.141276 0.141927 0.142578 0.143229 0.143880 0.144531 0.145182 0.145833 0.146484 0.147135 0.147786 0.148438 0.149089 0.149740 0.150391 0.151042 0.151693 0.152344 0.152995 0.153646 0.154297 0.154948 0.155599 0.156250 0.156901 0.157552 0.158203 0.158854 0.159505 0.160156 0.160807 0.161458 0.162109 0.162760 0.163411 0.164062 0.164714 0.165365 0.166016 0.166667 0.167318 0.167969 0.168620 0.169271 0.169922 0.170573 0.171224 0.171875 0.172526 0.173177 0.173828 0.174479 0.175130 0.175781 0.176432 0.177083 0.177734 0.178385 0.179036 0.179688 0.180339 0.180990 0.181641 0.182292 0.182943 0.183594 0.184245 0.184896 0.185547 0.186198 0.186849 0.187500 0.188151 0.188802 0.189453 0.190104 0.190755 0.191406 0.192057 0.192708 0.193359 0.194010 0.194661 0.195312 0.195964 0.196615 0.197266 0.197917 0.198568 0.199219 0.199870 0.200521 0.201172 0.201823 0.202474 0.203125 0.203776 0.204427 0.205078 0.205729 0.206380 0.207031 0.207682 0.208333 0.208984 0.209635 0.210286 0.210938 0.211589 0.212240 0.212891 0.213542 0.214193 0.214844 0.215495 0.216146 0.216797 0.217448 0.218099 0.218750 0.219401 0.220052 0.220703 0.221354 0.222005 0.222656 0.223307 0.223958 0.224609 0.225260 0.225911 0.226562 0.227214 0.227865 0.228516 0.229167 0.229818 0.230469 0.231120 0.231771 0.232422 0.233073 0.233724 0.234375 0.235026 0.235677
       0.34933        0.34933        0.34933        0.34933        0.34933        0.34933        0.34933        0.34933        0.34933        0.34933        0.34933        0.34933        0.34933        0.34933        0.34933        0.34933        0.34933        0.34933        0.34933        0.34933        0.34933        0.34933        0.34933        0.34933        0.34933        0.34933        0.34933        0.34933        0.34933        0.34933        0.34933        0.34933        0.34933        0.34933        0.34933        0.34933        0.34933        0.34933        0.34933        0.34933        0.34933        0.34933        0.34933        0.34933        0.34933        0.34933        0.34933        0.34933        0.34933        0.34933        0.34933        0.70149        0.85798        0.54068        0.10659       -0.02790       -0.37920       -0.17743       -0.28756       -0.11652       -0.05302       -0.11259       -0.05225       -0.16033       -0.20191       -0.20950       -0.30312       -0.31392       -0.43860       -0.35992       -0.42005       -0.41613       -0.38877       -0.39811       -0.43753       -0.50039       -0.55475       -0.54152       -0.51464       -0.35011       -0.31786       -0.28417       -0.26399       -0.18153       -0.16468        0.06561        0.14870        0.18309        0.27172        0.38222        0.45960        0.52546        0.60669        0.60392        0.58895        0.70352        0.80123        0.70177        0.74723        0.61750        0.56998        0.48681        0.43820        0.51432        0.40220        0.28177        0.12256        0.12183        0.10393       -0.00424        0.05717        0.06109        0.02122        0.03165        0.04040        0.23702        0.27374        0.29830        0.43884        0.45665        0.41791        0.60757        0.61540        0.62874        0.72101        0.67553        0.64849        0.65347        0.56059        0.45909        0.42030        0.30901        0.28104        0.19227        0.14100        0.05394        0.07421        0.08726        0.10491        0.16754        0.25201        0.30681        0.43372        0.46850        0.48305        0.56136        0.60198        0.63797        0.61136        0.55553        0.46615        0.47410        0.37956        0.28521        0.21858        0.15807        0.17952        0.15796        0.17307        0.20362        0.33108        0.34657        0.41556        0.45333        0.42495        0.47800        0.56603        0.55877        0.50898        0.45933        0.41843        0.38015        0.34941        0.31760        0.27551        0.25268        0.26733        0.26304        0.23130        0.31559        0.37088        0.38570        0.44144        0.45678        0.46628        0.43196        0.41744        0.40491        0.36868        0.34953        0.27854        0.29057        0.27504        0.25713        0.30396        0.30089        0.35796        0.39147        0.44365        0.47808        0.40735        0.42372        0.43341        0.41634        0.35445        0.33522        0.29446        0.33415        0.28323        0.33168        0.32270        0.34066        0.34875        0.37085        0.31125        0.38710        0.41297        0.38472        0.35572        0.37051        0.32336        0.30157        0.31490        0.32092        0.31127        0.32328        0.35272        0.36588        0.34558        0.36421        0.36198        0.43248        0.39799        0.34547        0.35386        0.30318        0.30207        0.33230        0.32398        0.33432        0.34866        0.35116        0.39354        0.33393        0.33352        0.34094        0.35667        0.30571        0.31497        0.28770        0.30534        0.33858        0.30563        0.33840        0.36582        0.38044        0.30550        0.35332        0.30516        0.29200        0.28200        0.25307        0.31586        0.31509        0.34494        0.34245        0.35168        0.33241        0.35180        0.32138        0.34799        0.30474        0.33244        0.30211        0.34323        0.34327        0.38419        0.34026        0.33919        0.33612        0.29680        0.28223        0.31853        0.25708        0.23665        0.34046        0.32897        0.37466        0.35220        0.36950        0.34354        0.33549        0.35911        0.27248        0.27914        0.32429        0.30178        0.31471        0.31174        0.34191        0.33001        0.28971        0.29709        0.34683        0.32616        0.33121        0.31205        0.32109        0.33802        0.38931        0.37263        0.32920        0.29064        0.30680        0.29392        0.31749        0.28737        0.28112        0.31281        0.32539        0.34881        0.35851        0.33762        0.30212        0.30676        0.27879        0.28748        0.26050        0.30600        0.25639        0.25859        0.28243        0.27538        0.25828        0.29326        0.22838        0.22930        0.23463        0.20054        0.28258        0.35944        0.25977        0.25794        0.32073        0.29631        0.30590        0.31744        0.28400        0.26417        0.20038        0.21381        0.22753        0.30923        0.23909        0.28193        0.37398        0.39424        0.27081        0.21328        0.16571       -0.01315       -0.16874       -0.63887
2.722255 2.693337 2.664575 2.635971 2.607525 2.579236 2.551104 2.523130 2.495314 2.467655 2.440154 2.412810 2.385623 2.358594 2.331722 2.305008 2.278451 2.252052 2.225811 2.199726 2.173800 2.148031 2.122419 2.096965 2.071668 2.046528 2.021547 1.996722 1.972056 1.947546 1.923194 1.899000 1.874963 1.851083 1.827362 1.803797 1.780390 1.757141 1.734049 1.711114 1.688337 1.665717 1.643255 1.620951 1.598803 1.576814 1.554982 1.533307 1.511790 1.490430 1.469228 1.679132 2.092885 1.663134 1.152699 1.018425 0.442403 0.820819 0.538820 0.813607 0.790222 0.789544 0.728458 0.734582 0.577958 0.542453 0.484305 0.410713 0.242287 0.346391 0.191095 0.318863 0.207021 0.205897 0.180808 0.040205 -0.004400 0.017636 -0.068834 0.128956 0.225935 0.182857 0.175700 0.310345 0.175941 0.506129 0.605307 0.620728 0.635756 0.846989 0.808702 0.913160 0.917112 1.008243 0.981737 1.044431 1.155195 1.008945 1.135043 0.879829 0.899102 0.773233 0.636182 0.786670 0.670125 0.488244 0.324737 0.243783 0.265392 0.146194 0.140390 0.164041 0.107934 0.109949 0.084698 0.237558 0.332645 0.327646 0.462924 0.526178 0.401930 0.577827 0.710636 0.610377 0.698288 0.681443 0.695982 0.620067 0.575217 0.465835 0.349978 0.269067 0.213880 0.095252 0.111363 -0.121846 -0.048897 -0.060854 -0.084314 -0.016229 0.122759 0.070425 0.239325 0.298392 0.325045 0.354370 0.474447 0.432754 0.466654 0.467841 0.292428 0.280767 0.274196 0.081577 0.045033 -0.082551 -0.019101 -0.062066 -0.095714 -0.058464 0.040008 0.093241 0.123701 0.222417 0.211498 0.211810 0.299902 0.325038 0.434430 0.244097 0.223502 0.221415 0.138014 0.141679 0.119077 -0.003850 0.014816 0.080946 -0.013775 0.040852 0.129866 0.129075 0.201669 0.225383 0.237621 0.156383 0.203567 0.124918 0.111448 0.118141 0.021633 -0.026493 -0.001959 -0.021322 -0.048082 0.054615 0.000254 0.104426 0.134308 0.190587 0.145372 0.117685 0.132482 0.149360 0.104435 0.030121 -0.027191 0.020753 0.032400 -0.046452 0.042527 0.016196 0.045709 0.038894 0.051148 0.011625 0.121410 0.107962 0.042569 0.031182 0.037600 0.002087 -0.028466 0.006221 -0.001765 -0.007858 -0.001797 0.062158 0.052345 0.035653 0.063387 0.059289 0.165870 0.064302 0.041823 0.043111 -0.035036 0.015319 0.048570 0.007296 0.030478 0.056017 0.074133 0.066124 0.040343 0.007563 0.077337 0.033084 0.014827 0.026807 -0.003316 0.029000 0.029013 0.018106 0.071300 0.077024 0.081077 0.041961 0.057129 0.017134 0.015285 -0.028856 -0.022249 0.040020 0.051449 0.074829 0.074672 0.064022 0.067547 0.088901 0.037820 0.078082 0.046046 0.046750 0.014810 0.103133 0.064313 0.128239 0.062819 0.059345 0.076585 0.021307 0.001507 0.080052 -0.037877 -0.034548 0.077714 0.040392 0.150978 0.089319 0.074339 0.063917 0.016024 0.078452 -0.020814 -0.023564 0.037350 0.020886 0.023567 0.001947 0.103139 0.013424 -0.019853 0.046344 0.028956 0.049191 0.051302 -0.002801 0.041546 0.038346 0.100048 0.064925 0.030162 -0.028737 -0.038601 -0.003516 0.014278 -0.056323 -0.016053 -0.006589 0.020606 0.024683 0.062820 0.003975 -0.030011 -0.022365 -0.015865 -0.055786 -0.042950 -0.044563 -0.126138 -0.087491 -0.073677 -0.108676 -0.116489 -0.036536 -0.148534 -0.089115 -0.123548 -0.199539 -0.069245 0.062149 -0.079672 -0.121206 0.045017 0.004207 -0.036730 0.060774 -0.024424 -0.002965 -0.078038 -0.048397 0.057280 0.146348 0.043062 0.121466 0.148196 0.502613 0.305455 0.361389 0.200300 -0.017126 -0.695105
0.072396 0.072899 0.074409 0.076924 0.080445 0.084970 0.090498 0.097028 0.104557 0.113083 0.122602 0.133110 0.144601 0.157070 0.170508 0.184906 0.200253 0.216537 0.233741 0.251849 0.270841 0.290694 0.311382 0.332874 0.355139 0.378138 0.401830 0.426169 0.451104 0.476579 0.502533 0.528898 0.555602 0.582565 0.609701 0.636919 0.664120 0.691198 0.718042 0.744531 0.770541 0.795938 0.820583 0.844330 0.867029 0.888520 0.908642 0.927228 0.944106 0.959101 0.972037 0.982736 0.991020 0.996710 0.999631 0.999613 0.996488 0.990098 0.980292 0.966930 0.949884 0.929044 0.904311 0.875611 0.842886 0.806106 0.765263 0.720379 0.671506 0.618726 0.562157 0.501952 0.438302 0.371434 0.301618 0.229161 0.154413 0.077764 0.000358 0.079484 0.159107 0.238687 0.317650 0.395393 0.471288 0.544686 0.614922 0.681323 0.743213 0.799918 0.850780 0.895158 0.932442 0.962058 0.983483 0.996248 0.999953 0.994272 0.978966 0.953890 0.919001 0.874368 0.820173 0.756724 0.684452 0.603918 0.515811 0.420950 0.320276 0.214851 0.105852 0.005448 0.117683 0.229411 0.339136 0.445321 0.546414 0.640869 0.727171 0.803864 0.869576 0.923049 0.963164 0.988970 0.999711 0.994845 0.974072 0.937348 0.884903 0.817251 0.735194 0.639828 0.532529 0.414950 0.288999 0.156816 0.020740 0.116725 0.252956 0.385257 0.510914 0.627250 0.731688 0.821812 0.895423 0.950607 0.985788 0.999780 0.991837 0.961688 0.909567 0.836235 0.742981 0.631615 0.504452 0.364272 0.214271 0.057999 0.100721 0.257877 0.409372 0.551129 0.679203 0.789899 0.879886 0.946305 0.986876 0.999983 0.984757 0.941126 0.869858 0.772567 0.651701 0.510500 0.352927 0.183573 0.007534 0.169735 0.342583 0.505342 0.652516 0.778976 0.880146 0.952189 0.992158 0.998149 0.969399 0.906359 0.810726 0.685424 0.534549 0.363248 0.177575 0.015718 0.209405 0.396063 0.568344 0.719281 0.842578 0.932887 0.986063 0.999382 0.971697 0.903548 0.797200 0.656594 0.487249 0.296065 0.091068 0.118908 0.324594 0.516694 0.686305 0.825347 0.926967 0.985902 0.998783 0.964358 0.883620 0.759838 0.598462 0.406927 0.194340 0.028922 0.251708 0.462644 0.650705 0.805820 0.919425 0.984966 0.998321 0.958089 0.865758 0.725708 0.545053 0.333329 0.102027 0.136010 0.367277 0.578374 0.756797 0.891693 0.974561 0.999826 0.965262 0.872227 0.725677 0.533971 0.308441 0.062766 0.187825 0.427487 0.640758 0.813570 0.934216 0.994180 0.988791 0.917642 0.784742 0.598355 0.370551 0.116481 0.146586 0.400434 0.627136 0.810358 0.936552 0.996022 0.983720 0.899742 0.749459 0.543246 0.295851 0.025380 0.247973 0.503434 0.721217 0.884096 0.978810 0.997205 0.937015 0.802187 0.602721 0.354008 0.075716 0.209714 0.478864 0.709261 0.881273 0.979840 0.995865 0.927136 0.778681 0.562509 0.296727 0.004102 0.289846 0.559055 0.779229 0.930081 0.997266 0.973835 0.861040 0.668417 0.413081 0.118306 0.188543 0.478501 0.723754 0.900324 0.990495 0.984671 0.882504 0.693141 0.434518 0.131778 0.185115 0.484290 0.735170 0.911657 0.994893 0.975396 0.854250 0.643215 0.363727 0.044820 0.279820 0.575372 0.809628 0.956566 0.999328 0.932271 0.761838 0.506085 0.192909 0.142904 0.463487 0.732147 0.917607 0.997742 0.962330 0.814501 0.570638 0.258710 0.084815 0.419170 0.704098 0.904747 0.996009 0.965802 0.816811 0.566451 0.244998 0.107958 0.448303 0.732894 0.925092 0.999556 0.945737 0.769537 0.492856 0.151035 0.211544
1.000000 1.000000 1.000000 1.000000 1.000000 1.000000 1.000000 1.000000 1.000000 1.000000 1.000000 1.000000 1.000000 1.000000 1.000000 1.000000 1.000000 1.000000 1.000000 1.000000 1.000000 1.000000 1.000000 1.000000 1.000000 1.000000 1.000000 1.000000 1.000000 1.000000 1.000000 1.000000 1.000000 1.000000 1.000000 1.000000 1.000000 1.000000 1.000000 1.000000 1.000000 1.000000 1.000000 1.000000 1.000000 1.000000 1.000000 1.000000 1.000000 1.000000 1.000000 1.000000 0.914358 0.914358 0.914358 0.911668 0.911668 0.911668 0.911668 0.911668 0.911668 0.911668 0.911668 0.911668 0.911668 0.911668 0.911668 0.911668 0.911668 0.911668 0.911668 0.911668 0.911668 0.911668 0.911668 0.911668 0.911668 0.911668 0.911668 0.911668 0.911668 0.911668 0.911668 0.911668 0.911668 0.911668 0.911668 0.911668 0.911668 0.911668 0.911668 0.911668 0.911668 0.911668 0.911668 0.911668 0.940008 0.941410 0.949803 0.949287 0.948752 0.946814 0.945531 0.945332 0.945253 0.945609 0.946345 0.947337 0.953532 0.954465 0.958847 0.961581 0.961557 0.963322 0.965325 0.964982 0.956813 0.956552 0.955093 0.954396 0.956520 0.955211 0.954029 0.954523 0.952224 0.956386 0.955984 0.954818 0.953225 0.951676 0.948154 0.947735 0.947486 0.948297 0.948386 0.949965 0.952990 0.951319 0.951431 0.948765 0.948326 0.949540 0.949199 0.950909 0.938923 0.938049 0.936396 0.936338 0.938926 0.938713 0.938609 0.939561 0.939273 0.939198 0.939215 0.933463 0.933361 0.926680 0.922099 0.921133 0.915148 0.911008 0.913784 0.916824 0.917862 0.918284 0.907921 0.905127 0.906207 0.904883 0.906173 0.907566 0.908814 0.909165 0.909101 0.904098 0.895267 0.893847 0.882775 0.885460 0.880610 0.877841 0.875119 0.867322 0.859074 0.870542 0.857637 0.811898 0.815459 0.820083 0.813099 0.808999 0.813118 0.813975 0.818920 0.813456 0.812682 0.805830 0.791007 0.789296 0.784183 0.769260 0.763152 0.753263 0.742804 0.736802 0.759731 0.753409 0.765504 0.769091 0.768428 0.764033 0.753367 0.740999 0.741705 0.742532 0.737919 0.713686 0.705899 0.705407 0.704792 0.690179 0.692296 0.681479 0.681895 0.667081 0.672753 0.678896 0.682419 0.676862 0.669357 0.660916 0.655737 0.669978 0.682333 0.672827 0.669581 0.683710 0.675148 0.670941 0.661493 0.663893 0.654544 0.655027 0.652973 0.688920 0.663614 0.653535 0.659835 0.661427 0.656572 0.654315 0.631989 0.626569 0.602031 0.619970 0.624530 0.639579 0.643769 0.649075 0.660386 0.667550 0.677913 0.683406 0.678711 0.637571 0.643704 0.663709 0.671831 0.663739 0.654493 0.644205 0.627088 0.663930 0.642518 0.604779 0.598763 0.603609 0.560318 0.543139 0.540628 0.539087 0.567939 0.568498 0.554642 0.530978 0.532862 0.529504 0.520720 0.519690 0.506408 0.510677 0.493799 0.473092 0.489258 0.496946 0.495931 0.479899 0.471135 0.483805 0.468558 0.486297 0.471130 0.458166 0.473607 0.473878 0.466099 0.392792 0.400346 0.396530 0.377648 0.337348 0.345432 0.356099 0.333681 0.259919 0.255873 0.256600 0.252299 0.224333 0.198678 0.184466 0.177645 0.156854 0.092128 0.040876 0.044727 0.047999 0.074435 0.037578 0.096144 0.168715 0.160817 0.160817 0.160817 0.160817 0.160817 0.160817 0.160817 0.160817 0.140669 0.140669 0.140669 0.140669 0.140669 0.140669 0.140669 0.140669 0.140669 0.160817 0.160817 0.160817 0.160817 0.160817 0.160817 0.160817 0.160817 0.160817 0.160817 0.160817 0.160817 0.160817 0.160817
0.000000 0.000000 0.000000 0.000000 0.000000 0.000000 0.000000 0.000000 0.000000 0.000000 0.000000 0.000000 0.000000 0.000000 0.000000 0.000000 0.000000 0.000000 0.000000 0.000000 0.000000 0.000000 0.000000 0.000000 0.000000 0.000000 0.000000 0.000000 0.000000 0.000000 0.000000 0.000000 0.000000 0.000000 0.000000 0.000000 0.000000 0.000000 0.000000 0.000000 0.000000 0.000000 0.000000 0.000000 0.000000 0.000000 0.000000 0.000000 0.000000 0.000000 0.000000 0.000000 0.180334 0.180334 0.180334 0.199007 0.199007 0.199007 0.199007 0.199007 0.199007 0.199007 0.199007 0.199007 0.199007 0.199007 0.199007 0.199007 0.199007 0.199007 0.199007 0.199007 0.199007 0.199007 0.199007 0.199007 0.199007 0.199007 0.199007 0.199007 0.199007 0.199007 0.199007 0.199007 0.199007 0.199007 0.199007 0.199007 0.199007 0.199007 0.199007 0.199007 0.199007 0.199007 0.199007 0.199007 0.225018 0.225018 0.225018 0.225018 0.225018 0.225018 0.225018 0.225018 0.225018 0.225018 0.225018 0.225018 0.225018 0.225018 0.225018 0.225018 0.225018 0.225018 0.225018 0.225018 0.225018 0.225018 0.225018 0.225018 0.225018 0.225018 0.225018 0.225018 0.225018 0.244339 0.244339 0.244339 0.244339 0.244339 0.244339 0.244339 0.244339 0.244339 0.244339 0.244339 0.244339 0.244339 0.244339 0.244339 0.244339 0.244339 0.244339 0.244339 0.244339 0.244339 0.244339 0.244339 0.256074 0.256074 0.256074 0.256074 0.256074 0.256074 0.256074 0.256074 0.256074 0.256074 0.256074 0.256074 0.256074 0.256074 0.256074 0.256074 0.256074 0.256074 0.256074 0.256074 0.256074 0.256074 0.256074 0.256074 0.256074 0.256074 0.256074 0.256074 0.256074 0.256074 0.256074 0.256074 0.256074 0.256074 0.256074 0.256074 0.256074 0.264906 0.264906 0.264906 0.264906 0.264906 0.264906 0.264906 0.264906 0.264906 0.264906 0.264906 0.264906 0.264906 0.264906 0.264906 0.264906 0.264906 0.264906 0.264906 0.264906 0.264906 0.264906 0.264906 0.264906 0.264906 0.264906 0.264906 0.264906 0.264906 0.264906 0.264906 0.264906 0.264906 0.264906 0.264906 0.264906 0.264906 0.264906 0.264906 0.264906 0.264906 0.264906 0.264906 0.264906 0.264906 0.264906 0.264906 0.264906 0.264906 0.264906 0.264906 0.264906 0.264906 0.264906 0.264906 0.264906 0.264906 0.264906 0.260378 0.260378 0.260378 0.260378 0.260378 0.260378 0.260378 0.260378 0.260378 0.260378 0.260378 0.260378 0.260378 0.264906 0.264906 0.264906 0.264906 0.264906 0.264906 0.264906 0.264906 0.264906 0.264906 0.264906 0.264906 0.269680 0.269680 0.269680 0.269680 0.269680 0.269680 0.269680 0.269680 0.269680 0.269680 0.269680 0.264906 0.264906 0.264906 0.264906 0.264906 0.264906 0.264906 0.264906 0.264906 0.264906 0.264906 0.256074 0.256074 0.256074 0.256074 0.256074 0.256074 0.256074 0.256074 0.256074 0.256074 0.256074 0.264906 0.264906 0.264906 0.264906 0.264906 0.264906 0.264906 0.264906 0.264906 0.264906 0.260378 0.260378 0.260378 0.260378 0.260378 0.260378 0.260378 0.260378 0.260378 0.260378 0.264906 0.264906 0.264906 0.264906 0.264906 0.264906 0.264906 0.264906 0.264906 0.251976 0.251976 0.251976 0.251976 0.251976 0.251976 0.251976 0.251976 0.251976 0.251976 0.256074 0.256074 0.256074 0.256074 0.256074 0.256074 0.256074 0.256074 0.256074 0.251976 0.251976 0.251976 0.251976 0.251976 0.251976 0.251976 0.251976 0.251976 0.251976 0.251976 0.251976 0.251976 0.251976
