# Output from CTFFind version 4.1.9, run on 2019-11-03 20:08:16
# Input file: stack16_bm3d_averaged_1_7.5_0_1500_half.mrc ; Number of micrographs: 1
# Pixel size: 3.000 Angstroms ; acceleration voltage: 300.0 keV ; spherical aberration: 0.00 mm ; amplitude contrast: 0.07
# Box size: 512 pixels ; min. res.: 30.0 Angstroms ; max. res.: 5.0 Angstroms ; min. def.: 5000.0 um; max. def. 50000.0 um; num. frames averaged: 1
# 6 lines per micrograph: #1 - spatial frequency (1/Angstroms); #2 - 1D rotational average of spectrum (assuming no astigmatism); #3 - 1D rotational average of spectrum; #4 - CTF fit; #5 - cross-correlation between spectrum and CTF fit; #6 - 2sigma of expected cross correlation of noise
0.000000 0.000651 0.001302 0.001953 0.002604 0.003255 0.003906 0.004557 0.005208 0.005859 0.006510 0.007161 0.007812 0.008464 0.009115 0.009766 0.010417 0.011068 0.011719 0.012370 0.013021 0.013672 0.014323 0.014974 0.015625 0.016276 0.016927 0.017578 0.018229 0.018880 0.019531 0.020182 0.020833 0.021484 0.022135 0.022786 0.023438 0.024089 0.024740 0.025391 0.026042 0.026693 0.027344 0.027995 0.028646 0.029297 0.029948 0.030599 0.031250 0.031901 0.032552 0.033203 0.033854 0.034505 0.035156 0.035807 0.036458 0.037109 0.037760 0.038411 0.039062 0.039714 0.040365 0.041016 0.041667 0.042318 0.042969 0.043620 0.044271 0.044922 0.045573 0.046224 0.046875 0.047526 0.048177 0.048828 0.049479 0.050130 0.050781 0.051432 0.052083 0.052734 0.053385 0.054036 0.054688 0.055339 0.055990 0.056641 0.057292 0.057943 0.058594 0.059245 0.059896 0.060547 0.061198 0.061849 0.062500 0.063151 0.063802 0.064453 0.065104 0.065755 0.066406 0.067057 0.067708 0.068359 0.069010 0.069661 0.070312 0.070964 0.071615 0.072266 0.072917 0.073568 0.074219 0.074870 0.075521 0.076172 0.076823 0.077474 0.078125 0.078776 0.079427 0.080078 0.080729 0.081380 0.082031 0.082682 0.083333 0.083984 0.084635 0.085286 0.085938 0.086589 0.087240 0.087891 0.088542 0.089193 0.089844 0.090495 0.091146 0.091797 0.092448 0.093099 0.093750 0.094401 0.095052 0.095703 0.096354 0.097005 0.097656 0.098307 0.098958 0.099609 0.100260 0.100911 0.101562 0.102214 0.102865 0.103516 0.104167 0.104818 0.105469 0.106120 0.106771 0.107422 0.108073 0.108724 0.109375 0.110026 0.110677 0.111328 0.111979 0.112630 0.113281 0.113932 0.114583 0.115234 0.115885 0.116536 0.117188 0.117839 0.118490 0.119141 0.119792 0.120443 0.121094 0.121745 0.122396 0.123047 0.123698 0.124349 0.125000 0.125651 0.126302 0.126953 0.127604 0.128255 0.128906 0.129557 0.130208 0.130859 0.131510 0.132161 0.132812 0.133464 0.134115 0.134766 0.135417 0.136068 0.136719 0.137370 0.138021 0.138672 0.139323 0.139974 0.140625 0.141276 0.141927 0.142578 0.143229 0.143880 0.144531 0.145182 0.145833 0.146484 0.147135 0.147786 0.148438 0.149089 0.149740 0.150391 0.151042 0.151693 0.152344 0.152995 0.153646 0.154297 0.154948 0.155599 0.156250 0.156901 0.157552 0.158203 0.158854 0.159505 0.160156 0.160807 0.161458 0.162109 0.162760 0.163411 0.164062 0.164714 0.165365 0.166016 0.166667 0.167318 0.167969 0.168620 0.169271 0.169922 0.170573 0.171224 0.171875 0.172526 0.173177 0.173828 0.174479 0.175130 0.175781 0.176432 0.177083 0.177734 0.178385 0.179036 0.179688 0.180339 0.180990 0.181641 0.182292 0.182943 0.183594 0.184245 0.184896 0.185547 0.186198 0.186849 0.187500 0.188151 0.188802 0.189453 0.190104 0.190755 0.191406 0.192057 0.192708 0.193359 0.194010 0.194661 0.195312 0.195964 0.196615 0.197266 0.197917 0.198568 0.199219 0.199870 0.200521 0.201172 0.201823 0.202474 0.203125 0.203776 0.204427 0.205078 0.205729 0.206380 0.207031 0.207682 0.208333 0.208984 0.209635 0.210286 0.210938 0.211589 0.212240 0.212891 0.213542 0.214193 0.214844 0.215495 0.216146 0.216797 0.217448 0.218099 0.218750 0.219401 0.220052 0.220703 0.221354 0.222005 0.222656 0.223307 0.223958 0.224609 0.225260 0.225911 0.226562 0.227214 0.227865 0.228516 0.229167 0.229818 0.230469 0.231120 0.231771 0.232422 0.233073 0.233724 0.234375 0.235026 0.235677
       0.36261        0.36261        0.36261        0.36261        0.36261        0.36261        0.36261        0.36261        0.36261        0.36261        0.36261        0.36261        0.36261        0.36261        0.36261        0.36261        0.36261        0.36261        0.36261        0.36261        0.36261        0.36261        0.36261        0.36261        0.36261        0.36261        0.36261        0.36261        0.36261        0.36261        0.36261        0.36261        0.36261        0.36261        0.36261        0.36261        0.36261        0.36261        0.36261        0.36261        0.36261        0.36261        0.36261        0.36261        0.36261        0.36261        0.36261        0.36261        0.36261        0.36261        0.36261        0.43925        0.56121        0.34770       -0.21504       -0.44253       -0.53187       -0.63599       -0.70264       -0.70589       -0.79727       -0.87527       -0.66395       -0.81522       -0.80255       -0.94047       -0.98121       -0.86258       -0.82213       -0.78350       -0.69035       -0.62261       -0.53167       -0.43985       -0.37683       -0.14970       -0.04912        0.05863        0.27668        0.26911        0.32915        0.37855        0.41302        0.53913        0.54729        0.58228        0.53897        0.48308        0.51334        0.54356        0.46824        0.34348        0.23210        0.19679        0.12316        0.03409        0.01719        0.00722        0.07727        0.04387        0.09507        0.06759        0.18586        0.21088        0.41788        0.46881        0.55310        0.66122        0.68672        0.71547        0.64713        0.61710        0.55862        0.45280        0.39919        0.29639        0.23312        0.23174        0.11998        0.13481        0.14034        0.10571        0.11115        0.31425        0.43013        0.53719        0.53992        0.56971        0.60980        0.59186        0.57359        0.59144        0.57571        0.47919        0.32366        0.28078        0.27549        0.17651        0.10886        0.18867        0.23575        0.30320        0.36415        0.43892        0.48441        0.53979        0.60850        0.55441        0.50944        0.51968        0.36752        0.30144        0.27862        0.19311        0.22743        0.26008        0.29623        0.29824        0.34674        0.44308        0.47607        0.50519        0.46142        0.45020        0.49876        0.40929        0.33853        0.30034        0.27859        0.24922        0.23705        0.25084        0.35316        0.46291        0.44719        0.49383        0.55994        0.46499        0.42506        0.36759        0.33497        0.29180        0.29627        0.28287        0.30328        0.37654        0.38283        0.45484        0.47947        0.45317        0.47654        0.39354        0.38942        0.36186        0.28931        0.26981        0.26995        0.35535        0.39111        0.37329        0.39824        0.44072        0.45548        0.39735        0.34778        0.33610        0.36609        0.33151        0.29930        0.30582        0.37385        0.39018        0.40941        0.39804        0.40695        0.43344        0.41993        0.33925        0.30251        0.32244        0.35222        0.40194        0.37564        0.41306        0.35995        0.38069        0.40290        0.35514        0.36516        0.33406        0.31748        0.34961        0.36111        0.34437        0.37891        0.39299        0.34131        0.36137        0.33723        0.32904        0.31673        0.33502        0.34198        0.33842        0.37923        0.38952        0.37522        0.32038        0.31595        0.30022        0.34503        0.33037        0.32760        0.38315        0.36721        0.35200        0.33008        0.31866        0.31469        0.29077        0.33402        0.34860        0.36394        0.38327        0.36807        0.33590        0.35391        0.37505        0.35257        0.36493        0.35863        0.32962        0.34483        0.30425        0.32955        0.31551        0.32777        0.29643        0.33547        0.36128        0.33824        0.37031        0.32916        0.35007        0.36799        0.35205        0.33329        0.34773        0.38282        0.35872        0.37117        0.34535        0.32396        0.33856        0.32782        0.34172        0.34011        0.37964        0.33695        0.33834        0.31039        0.31104        0.28592        0.29276        0.37399        0.32432        0.33394        0.30282        0.27570        0.28423        0.37346        0.31616        0.29821        0.34008        0.32908        0.30084        0.26533        0.30636        0.28222        0.31885        0.32131        0.35848        0.34826        0.33510        0.32959        0.27843        0.29805        0.29975        0.30135        0.31630        0.36757        0.31307        0.22565        0.31586        0.31942        0.34986        0.28554        0.30419        0.28211        0.33124        0.28783        0.27464        0.28768        0.25512        0.31709        0.33379        0.32061        0.27212        0.33806        0.28650        0.24762        0.24038        0.33118        0.25728        0.15737        0.11349        0.19920        0.35782        0.28881        0.20002        0.16914       -0.35927       -0.53209
3.271843 3.230038 3.188506 3.147246 3.106258 3.065543 3.025100 2.984930 2.945032 2.905406 2.866053 2.826972 2.788163 2.749627 2.711364 2.673372 2.635653 2.598207 2.561033 2.524131 2.487502 2.451145 2.415060 2.379248 2.343708 2.308441 2.273446 2.238723 2.204273 2.170095 2.136190 2.102556 2.069196 2.036108 2.003292 1.970748 1.938477 1.906478 1.874752 1.843298 1.812117 1.781208 1.750571 1.720206 1.690114 1.660295 1.630748 1.601473 1.572470 1.543740 1.515283 1.552049 1.616217 1.556759 0.844069 0.604885 0.466235 0.395695 0.298126 0.227552 0.196926 -0.046642 0.216545 0.084085 -0.023767 -0.099298 -0.234330 -0.139251 -0.045874 -0.093761 -0.067314 0.041032 0.043434 0.237023 0.111373 0.361228 0.465694 0.503993 0.779085 0.681985 0.702091 0.821172 0.795342 0.849483 0.923473 0.851740 0.883284 0.725679 0.781712 0.844846 0.693481 0.604960 0.431736 0.429419 0.321304 0.194912 0.189030 0.111835 0.207635 0.118897 0.205385 0.103895 0.213267 0.225553 0.429392 0.394362 0.560983 0.598990 0.614075 0.709951 0.596705 0.562261 0.454440 0.406411 0.277475 0.256330 0.084875 0.143720 -0.035304 0.033257 -0.030615 -0.048885 -0.067273 0.015904 0.251235 0.284417 0.344812 0.281021 0.367996 0.374339 0.395642 0.377111 0.348072 0.314684 0.111589 0.063282 0.057711 -0.028769 -0.154382 -0.066031 -0.065861 0.029836 0.066377 0.138642 0.199502 0.214361 0.306952 0.394756 0.267247 0.356756 0.217633 0.143360 0.061475 0.029693 -0.000563 0.054223 0.067495 0.087845 0.117028 0.165148 0.234362 0.297614 0.259622 0.201619 0.247267 0.221493 0.106620 0.047598 0.056415 0.021222 0.003915 -0.034784 0.028274 0.164635 0.197458 0.182929 0.290372 0.184362 0.193093 0.070206 0.062280 0.019539 -0.006204 -0.008787 -0.012520 0.047228 0.081547 0.104058 0.157149 0.137823 0.223522 0.141160 0.076634 0.098069 0.037768 -0.045549 -0.015095 0.030848 0.072862 0.070131 0.062755 0.148800 0.107164 0.156013 0.037355 0.043133 0.046297 0.043871 0.027726 -0.018741 0.040263 0.054817 0.092842 0.098337 0.083638 0.113762 0.121370 0.079596 0.009602 -0.013541 0.016276 0.073054 0.079852 0.085723 0.081349 0.054009 0.098287 0.065824 0.041136 0.071121 -0.008732 0.009878 0.068169 0.040558 0.044372 0.079275 0.082438 0.046754 0.067366 0.020060 0.018164 0.014643 0.056850 0.020960 0.037040 0.076802 0.079912 0.046518 -0.004551 -0.000873 -0.019188 0.047767 0.002281 0.011990 0.073777 0.042192 0.006628 0.014414 -0.018338 0.002443 -0.036278 0.010963 0.024445 0.051227 0.044625 0.033333 0.004185 0.007918 0.048412 0.012174 0.033422 0.010300 -0.010026 0.013220 -0.042422 -0.032322 -0.051038 -0.011824 -0.070722 0.008665 0.008040 -0.005802 -0.014847 -0.001176 -0.003560 0.027921 0.006930 -0.011807 0.015249 0.026634 0.027536 0.035996 0.000538 0.007079 0.011581 -0.009510 0.016210 -0.005044 0.097728 0.026079 0.018418 0.005069 -0.006876 -0.025483 0.006018 0.074402 0.001561 0.043324 -0.026152 -0.025153 -0.022605 0.089042 0.002799 -0.025918 0.073377 0.051955 0.000958 -0.002419 0.008947 0.007804 0.047284 0.040016 0.103769 0.043437 0.056795 0.044864 -0.006843 0.025214 0.004070 0.001817 0.025000 0.081377 -0.003149 -0.074555 0.033657 0.013787 0.079743 -0.039563 -0.007224 -0.016947 0.012651 -0.008501 -0.035891 -0.004252 -0.067824 0.050538 0.033485 0.046988 -0.102770 0.050457 0.035953 -0.007498 -0.055965 0.103729 0.024812 -0.053792 -0.138578 0.169725 0.358984 0.243566 0.133329 0.169473 -0.513631
0.072396 0.073047 0.074998 0.078249 0.082799 0.088647 0.095791 0.104226 0.113951 0.124958 0.137242 0.150795 0.165606 0.181663 0.198949 0.217448 0.237136 0.257987 0.279971 0.303053 0.327191 0.352338 0.378441 0.405440 0.433265 0.461840 0.491080 0.520891 0.551169 0.581798 0.612656 0.643605 0.674499 0.705180 0.735479 0.765214 0.794192 0.822212 0.849058 0.874506 0.898324 0.920268 0.940090 0.957536 0.972345 0.984256 0.993007 0.998337 0.999991 0.997720 0.991288 0.980468 0.965055 0.944863 0.919730 0.889525 0.854150 0.813542 0.767683 0.716599 0.660365 0.599112 0.533027 0.462358 0.387416 0.308576 0.226284 0.141050 0.053453 0.035862 0.126184 0.216744 0.306714 0.395217 0.481332 0.564104 0.642554 0.715688 0.782516 0.842058 0.893367 0.935540 0.967737 0.989200 0.999271 0.997407 0.983201 0.956400 0.916918 0.864850 0.800490 0.724335 0.637093 0.539690 0.433265 0.319168 0.198950 0.074348 0.052733 0.180245 0.306029 0.427843 0.543413 0.650462 0.746770 0.830217 0.898836 0.950865 0.984803 0.999454 0.993979 0.967935 0.921312 0.854560 0.768606 0.664864 0.545226 0.412050 0.268120 0.116611 0.038983 0.194911 0.347258 0.492037 0.625299 0.743244 0.842336 0.919420 0.971838 0.997531 0.995140 0.964077 0.904593 0.817811 0.705740 0.571253 0.418046 0.250550 0.073834 0.106548 0.284714 0.454641 0.610375 0.746245 0.857081 0.938430 0.986752 0.999604 0.975784 0.915432 0.820096 0.692735 0.537665 0.360452 0.167738 0.032981 0.233633 0.425889 0.601501 0.752677 0.872435 0.954955 0.995896 0.992649 0.944547 0.852970 0.721370 0.555200 0.361732 0.149777 0.070687 0.288956 0.494129 0.675640 0.823830 0.930489 0.989341 0.996467 0.950610 0.853345 0.709111 0.525074 0.310827 0.077940 0.160630 0.391242 0.600349 0.775306 0.905164 0.981402 0.998542 0.954598 0.851334 0.694292 0.492574 0.258385 0.006349 0.247360 0.486051 0.693603 0.855593 0.960340 0.999805 0.970288 0.872836 0.713335 0.502252 0.254038 0.013799 0.281884 0.530353 0.740345 0.895455 0.983089 0.995556 0.930840 0.792939 0.591748 0.342456 0.064485 0.219961 0.487639 0.716170 0.885939 0.981861 0.994796 0.922535 0.770205 0.550051 0.280562 0.014967 0.310405 0.579060 0.796108 0.940942 0.999219 0.964395 0.838578 0.632582 0.365154 0.061367 0.249621 0.537350 0.773024 0.932476 0.998716 0.963894 0.830350 0.610672 0.326669 0.007342 0.313992 0.603146 0.828704 0.965522 0.997648 0.920335 0.740871 0.478107 0.160626 0.176228 0.494219 0.756552 0.932190 0.999644 0.949764 0.787152 0.529971 0.208123 0.140102 0.472464 0.747914 0.931692 0.999867 0.942614 0.765831 0.490779 0.151742 0.208095 0.542059 0.806053 0.964442 0.995034 0.892391 0.668980 0.353910 0.010645 0.374948 0.688444 0.906807 0.998345 0.948803 0.763819 0.468583 0.104666 0.275654 0.616829 0.868141 0.991392 0.966891 0.796874 0.505659 0.136458 0.254838 0.608009 0.867784 0.992617 0.961554 0.778027 0.469854 0.085327 0.314160 0.663790 0.905893 0.999597 0.927988 0.701467 0.356601 0.049483 0.448369 0.771803 0.963482 0.989028 0.842481 0.547951 0.156017 0.264718 0.639451 0.900516 0.999772 0.917750 0.667828 0.294467 0.134387 0.539464 0.844752 0.991935 0.951773 0.730291 0.368344 0.065551 0.487940 0.816407 0.985772 0.961288 0.746176 0.381710 0.060275 0.491293 0.823833 0.989247 0.952216 0.718700 0.335509 0.118665 0.549138 0.864940 0.998154 0.918889 0.642419 0.226744 0.239142 0.654107
1.000000 1.000000 1.000000 1.000000 1.000000 1.000000 1.000000 1.000000 1.000000 1.000000 1.000000 1.000000 1.000000 1.000000 1.000000 1.000000 1.000000 1.000000 1.000000 1.000000 1.000000 1.000000 1.000000 1.000000 1.000000 1.000000 1.000000 1.000000 1.000000 1.000000 1.000000 1.000000 1.000000 1.000000 1.000000 1.000000 1.000000 1.000000 1.000000 1.000000 1.000000 1.000000 1.000000 1.000000 1.000000 1.000000 1.000000 1.000000 1.000000 1.000000 1.000000 1.000000 0.926935 0.926935 0.926935 0.926935 0.926935 0.926935 0.926935 0.926935 0.926935 0.926935 0.926935 0.926935 0.926935 0.926935 0.926935 0.926935 0.926935 0.926935 0.926935 0.926935 0.926935 0.926935 0.926935 0.926935 0.926935 0.926935 0.926935 0.926935 0.926935 0.926935 0.926935 0.926935 0.926935 0.913215 0.911332 0.912482 0.911021 0.909587 0.908997 0.908602 0.909641 0.911240 0.913320 0.934969 0.938070 0.939315 0.940645 0.942022 0.944312 0.942144 0.949693 0.956192 0.955117 0.956247 0.956362 0.956866 0.956212 0.955466 0.958041 0.957214 0.955587 0.953683 0.952089 0.951566 0.951347 0.954930 0.955364 0.955518 0.956060 0.955981 0.956699 0.957285 0.955307 0.957443 0.949470 0.948319 0.953764 0.951902 0.953473 0.953431 0.954131 0.954887 0.955166 0.955390 0.952182 0.951707 0.950779 0.944803 0.937615 0.937935 0.939591 0.941653 0.938653 0.936679 0.938337 0.939883 0.938964 0.942175 0.933703 0.929720 0.902848 0.888703 0.880416 0.880334 0.884571 0.887132 0.885048 0.880110 0.872519 0.869267 0.868042 0.865105 0.856341 0.858994 0.858871 0.854142 0.857459 0.860637 0.865896 0.864381 0.860393 0.855522 0.850081 0.838325 0.839113 0.839984 0.844268 0.825790 0.813119 0.829320 0.822783 0.814977 0.822940 0.824917 0.822469 0.821064 0.821337 0.819165 0.812413 0.804077 0.807905 0.816990 0.819042 0.809883 0.807428 0.806978 0.806530 0.801435 0.807003 0.809517 0.806030 0.797951 0.815342 0.786853 0.805657 0.807047 0.787806 0.772450 0.761070 0.769052 0.777492 0.771047 0.767900 0.778628 0.778644 0.772310 0.752242 0.735295 0.742989 0.741258 0.732025 0.720572 0.727272 0.720951 0.718978 0.716878 0.720628 0.720761 0.699220 0.712952 0.717990 0.713248 0.725433 0.728354 0.719421 0.722707 0.727220 0.728581 0.728086 0.702891 0.705973 0.639818 0.630666 0.596858 0.593794 0.587160 0.532298 0.536879 0.521933 0.507995 0.508346 0.471148 0.519337 0.417522 0.408587 0.431712 0.360518 0.335997 0.354424 0.355985 0.368460 0.364977 0.363912 0.368788 0.350088 0.321695 0.292235 0.319492 0.333498 0.315397 0.316533 0.288789 0.279255 0.226218 0.241532 0.245806 0.277055 0.279035 0.264983 0.284145 0.326856 0.265113 0.250901 0.228890 0.255286 0.259238 0.250154 0.239452 0.261782 0.200223 0.211032 0.227118 0.228994 0.280479 0.306765 0.320678 0.318583 0.326595 0.355730 0.312097 0.320166 0.327036 0.318430 0.346941 0.350154 0.360687 0.357640 0.391445 0.398180 0.402756 0.409366 0.432485 0.457206 0.432693 0.416082 0.371750 0.387685 0.380061 0.395196 0.340940 0.319120 0.318542 0.288542 0.241568 0.242786 0.241733 0.197109 0.194711 0.179304 0.148172 0.146918 0.155857 0.179034 0.150766 0.163505 0.167646 0.167646 0.167646 0.167646 0.167646 0.167646 0.167646 0.167646 0.167646 0.167646 0.167646 0.167646 0.167646 0.167646 0.188723 0.188723 0.188723 0.188723 0.188723 0.188723 0.188723 0.188723 0.188723 0.188723 0.188723 0.188723
0.000000 0.000000 0.000000 0.000000 0.000000 0.000000 0.000000 0.000000 0.000000 0.000000 0.000000 0.000000 0.000000 0.000000 0.000000 0.000000 0.000000 0.000000 0.000000 0.000000 0.000000 0.000000 0.000000 0.000000 0.000000 0.000000 0.000000 0.000000 0.000000 0.000000 0.000000 0.000000 0.000000 0.000000 0.000000 0.000000 0.000000 0.000000 0.000000 0.000000 0.000000 0.000000 0.000000 0.000000 0.000000 0.000000 0.000000 0.000000 0.000000 0.000000 0.000000 0.000000 0.209657 0.209657 0.209657 0.209657 0.209657 0.209657 0.209657 0.209657 0.209657 0.209657 0.209657 0.209657 0.209657 0.209657 0.209657 0.209657 0.209657 0.209657 0.209657 0.209657 0.209657 0.209657 0.209657 0.209657 0.209657 0.209657 0.209657 0.209657 0.209657 0.209657 0.209657 0.209657 0.209657 0.244339 0.244339 0.244339 0.244339 0.244339 0.244339 0.244339 0.244339 0.244339 0.244339 0.244339 0.244339 0.244339 0.244339 0.244339 0.244339 0.244339 0.244339 0.244339 0.244339 0.244339 0.244339 0.244339 0.244339 0.244339 0.260378 0.260378 0.260378 0.260378 0.260378 0.260378 0.260378 0.260378 0.260378 0.260378 0.260378 0.260378 0.260378 0.260378 0.260378 0.260378 0.260378 0.260378 0.260378 0.260378 0.269680 0.269680 0.269680 0.269680 0.269680 0.269680 0.269680 0.269680 0.269680 0.269680 0.269680 0.269680 0.269680 0.269680 0.269680 0.269680 0.269680 0.269680 0.269680 0.269680 0.269680 0.269680 0.269680 0.269680 0.269680 0.269680 0.269680 0.269680 0.269680 0.269680 0.269680 0.269680 0.269680 0.280056 0.280056 0.280056 0.280056 0.280056 0.280056 0.280056 0.280056 0.280056 0.280056 0.280056 0.280056 0.280056 0.280056 0.280056 0.280056 0.280056 0.280056 0.280056 0.280056 0.280056 0.280056 0.280056 0.280056 0.280056 0.280056 0.280056 0.274721 0.274721 0.274721 0.274721 0.274721 0.274721 0.274721 0.274721 0.274721 0.274721 0.274721 0.274721 0.274721 0.285714 0.285714 0.285714 0.285714 0.285714 0.285714 0.285714 0.285714 0.285714 0.285714 0.285714 0.280056 0.280056 0.280056 0.280056 0.280056 0.280056 0.280056 0.280056 0.280056 0.280056 0.280056 0.274721 0.274721 0.274721 0.274721 0.274721 0.274721 0.274721 0.274721 0.274721 0.274721 0.274721 0.280056 0.280056 0.280056 0.280056 0.280056 0.280056 0.280056 0.280056 0.280056 0.280056 0.285714 0.285714 0.285714 0.285714 0.285714 0.285714 0.285714 0.285714 0.285714 0.269680 0.269680 0.269680 0.269680 0.269680 0.269680 0.269680 0.269680 0.269680 0.269680 0.274721 0.274721 0.274721 0.274721 0.274721 0.274721 0.274721 0.274721 0.274721 0.285714 0.285714 0.285714 0.285714 0.285714 0.285714 0.285714 0.285714 0.264906 0.264906 0.264906 0.264906 0.264906 0.264906 0.264906 0.264906 0.264906 0.274721 0.274721 0.274721 0.274721 0.274721 0.274721 0.274721 0.274721 0.269680 0.269680 0.269680 0.269680 0.269680 0.269680 0.269680 0.269680 0.269680 0.269680 0.269680 0.269680 0.269680 0.269680 0.269680 0.269680 0.280056 0.280056 0.280056 0.280056 0.280056 0.280056 0.280056 0.260378 0.260378 0.260378 0.260378 0.260378 0.260378 0.260378 0.260378 0.269680 0.269680 0.269680 0.269680 0.269680 0.269680 0.269680 0.264906 0.264906 0.264906 0.264906 0.264906 0.264906 0.264906 0.264906 0.264906 0.264906 0.264906 0.264906 0.264906 0.264906 0.260378 0.260378 0.260378 0.260378 0.260378 0.260378 0.260378 0.260378 0.260378 0.260378 0.260378 0.260378
