# Output from CTFFind version 4.1.9, run on 2019-11-02 17:48:08
# Input file: stack1_bm3d_averaged_1_0.5_0_2000_half.mrc ; Number of micrographs: 1
# Pixel size: 3.000 Angstroms ; acceleration voltage: 300.0 keV ; spherical aberration: 0.00 mm ; amplitude contrast: 0.07
# Box size: 512 pixels ; min. res.: 30.0 Angstroms ; max. res.: 5.0 Angstroms ; min. def.: 5000.0 um; max. def. 50000.0 um; num. frames averaged: 1
# 6 lines per micrograph: #1 - spatial frequency (1/Angstroms); #2 - 1D rotational average of spectrum (assuming no astigmatism); #3 - 1D rotational average of spectrum; #4 - CTF fit; #5 - cross-correlation between spectrum and CTF fit; #6 - 2sigma of expected cross correlation of noise
0.000000 0.000651 0.001302 0.001953 0.002604 0.003255 0.003906 0.004557 0.005208 0.005859 0.006510 0.007161 0.007812 0.008464 0.009115 0.009766 0.010417 0.011068 0.011719 0.012370 0.013021 0.013672 0.014323 0.014974 0.015625 0.016276 0.016927 0.017578 0.018229 0.018880 0.019531 0.020182 0.020833 0.021484 0.022135 0.022786 0.023438 0.024089 0.024740 0.025391 0.026042 0.026693 0.027344 0.027995 0.028646 0.029297 0.029948 0.030599 0.031250 0.031901 0.032552 0.033203 0.033854 0.034505 0.035156 0.035807 0.036458 0.037109 0.037760 0.038411 0.039062 0.039714 0.040365 0.041016 0.041667 0.042318 0.042969 0.043620 0.044271 0.044922 0.045573 0.046224 0.046875 0.047526 0.048177 0.048828 0.049479 0.050130 0.050781 0.051432 0.052083 0.052734 0.053385 0.054036 0.054688 0.055339 0.055990 0.056641 0.057292 0.057943 0.058594 0.059245 0.059896 0.060547 0.061198 0.061849 0.062500 0.063151 0.063802 0.064453 0.065104 0.065755 0.066406 0.067057 0.067708 0.068359 0.069010 0.069661 0.070312 0.070964 0.071615 0.072266 0.072917 0.073568 0.074219 0.074870 0.075521 0.076172 0.076823 0.077474 0.078125 0.078776 0.079427 0.080078 0.080729 0.081380 0.082031 0.082682 0.083333 0.083984 0.084635 0.085286 0.085938 0.086589 0.087240 0.087891 0.088542 0.089193 0.089844 0.090495 0.091146 0.091797 0.092448 0.093099 0.093750 0.094401 0.095052 0.095703 0.096354 0.097005 0.097656 0.098307 0.098958 0.099609 0.100260 0.100911 0.101562 0.102214 0.102865 0.103516 0.104167 0.104818 0.105469 0.106120 0.106771 0.107422 0.108073 0.108724 0.109375 0.110026 0.110677 0.111328 0.111979 0.112630 0.113281 0.113932 0.114583 0.115234 0.115885 0.116536 0.117188 0.117839 0.118490 0.119141 0.119792 0.120443 0.121094 0.121745 0.122396 0.123047 0.123698 0.124349 0.125000 0.125651 0.126302 0.126953 0.127604 0.128255 0.128906 0.129557 0.130208 0.130859 0.131510 0.132161 0.132812 0.133464 0.134115 0.134766 0.135417 0.136068 0.136719 0.137370 0.138021 0.138672 0.139323 0.139974 0.140625 0.141276 0.141927 0.142578 0.143229 0.143880 0.144531 0.145182 0.145833 0.146484 0.147135 0.147786 0.148438 0.149089 0.149740 0.150391 0.151042 0.151693 0.152344 0.152995 0.153646 0.154297 0.154948 0.155599 0.156250 0.156901 0.157552 0.158203 0.158854 0.159505 0.160156 0.160807 0.161458 0.162109 0.162760 0.163411 0.164062 0.164714 0.165365 0.166016 0.166667 0.167318 0.167969 0.168620 0.169271 0.169922 0.170573 0.171224 0.171875 0.172526 0.173177 0.173828 0.174479 0.175130 0.175781 0.176432 0.177083 0.177734 0.178385 0.179036 0.179688 0.180339 0.180990 0.181641 0.182292 0.182943 0.183594 0.184245 0.184896 0.185547 0.186198 0.186849 0.187500 0.188151 0.188802 0.189453 0.190104 0.190755 0.191406 0.192057 0.192708 0.193359 0.194010 0.194661 0.195312 0.195964 0.196615 0.197266 0.197917 0.198568 0.199219 0.199870 0.200521 0.201172 0.201823 0.202474 0.203125 0.203776 0.204427 0.205078 0.205729 0.206380 0.207031 0.207682 0.208333 0.208984 0.209635 0.210286 0.210938 0.211589 0.212240 0.212891 0.213542 0.214193 0.214844 0.215495 0.216146 0.216797 0.217448 0.218099 0.218750 0.219401 0.220052 0.220703 0.221354 0.222005 0.222656 0.223307 0.223958 0.224609 0.225260 0.225911 0.226562 0.227214 0.227865 0.228516 0.229167 0.229818 0.230469 0.231120 0.231771 0.232422 0.233073 0.233724 0.234375 0.235026 0.235677
       0.33368        0.33368        0.33368        0.33368        0.33368        0.33368        0.33368        0.33368        0.33368        0.33368        0.33368        0.33368        0.33368        0.33368        0.33368        0.33368        0.33368        0.33368        0.33368        0.33368        0.33368        0.33368        0.33368        0.33368        0.33368        0.33368        0.33368        0.33368        0.33368        0.33368        0.33368        0.33368        0.33368        0.33368        0.33368        0.33368        0.33368        0.33368        0.33368        0.33368        0.33368        0.33368        0.33368        0.33368        0.33368        0.33368        0.33368        0.33368        0.33368        0.33368        0.33368        0.50302        0.71939        0.42944        0.19065       -0.08022       -0.26325       -0.06942       -0.13333       -0.05342       -0.00201       -0.14630       -0.09168       -0.04971       -0.00203       -0.15098       -0.21963       -0.34581       -0.46259       -0.55877       -0.51788       -0.44817       -0.37191       -0.54739       -0.44859       -0.62044       -0.50150       -0.47463       -0.38956       -0.38372       -0.34066       -0.25004       -0.15983       -0.13544        0.03337       -0.01113        0.11884        0.16929        0.30433        0.40932        0.46523        0.49686        0.54088        0.55062        0.69424        0.64652        0.67818        0.59194        0.55716        0.65619        0.52924        0.42763        0.38418        0.32206        0.22814        0.26512        0.25247        0.10869        0.08493        0.00077       -0.00654        0.03564       -0.00273        0.07588        0.09839        0.23163        0.28315        0.30445        0.38063        0.56031        0.53782        0.57895        0.67118        0.70014        0.63133        0.63485        0.63210        0.55357        0.57608        0.39613        0.34527        0.26726        0.18620        0.07185        0.14604        0.11987        0.09046        0.10680        0.21032        0.21454        0.31754        0.35920        0.41411        0.49402        0.58588        0.54260        0.55442        0.60938        0.54204        0.46372        0.47868        0.32458        0.25245        0.25763        0.24355        0.14457        0.14576        0.15270        0.22018        0.24890        0.32898        0.36355        0.39024        0.46904        0.44830        0.47926        0.45635        0.46814        0.44515        0.40778        0.38266        0.35309        0.31036        0.28571        0.20436        0.19850        0.22158        0.26984        0.26949        0.35109        0.37626        0.35871        0.41152        0.45760        0.45001        0.42471        0.43842        0.36984        0.33614        0.28481        0.26527        0.29054        0.27096        0.29560        0.30130        0.35011        0.34317        0.40032        0.40614        0.42734        0.41124        0.42909        0.40350        0.36605        0.28396        0.29340        0.30935        0.27499        0.25751        0.33117        0.37117        0.34261        0.35489        0.35957        0.35529        0.40825        0.40112        0.35894        0.33957        0.31121        0.30977        0.31543        0.31628        0.30009        0.28803        0.33644        0.35836        0.37866        0.33351        0.32830        0.33468        0.34543        0.30674        0.28358        0.30821        0.31662        0.33659        0.32333        0.33385        0.35875        0.33097        0.31399        0.32944        0.30469        0.26580        0.25258        0.26604        0.30713        0.32343        0.35055        0.30209        0.31655        0.33924        0.29406        0.31714        0.28760        0.28353        0.29313        0.30073        0.30946        0.34376        0.32369        0.32963        0.33510        0.31181        0.33413        0.31826        0.31985        0.30884        0.28401        0.29462        0.31538        0.29273        0.32840        0.33951        0.33446        0.31791        0.33854        0.31660        0.27589        0.25519        0.27157        0.33232        0.36011        0.34781        0.31687        0.29525        0.29753        0.31515        0.24745        0.29917        0.30461        0.32806        0.29876        0.32046        0.28807        0.33729        0.34368        0.34583        0.32778        0.29443        0.31665        0.39665        0.32940        0.31396        0.30951        0.29064        0.28543        0.29766        0.26439        0.30936        0.23993        0.28030        0.29803        0.31710        0.29573        0.27767        0.30121        0.23652        0.22840        0.26161        0.30633        0.30491        0.28300        0.28709        0.33326        0.25659        0.21310        0.31301        0.27516        0.25522        0.28277        0.39762        0.29864        0.28548        0.24831        0.25368        0.26473        0.23444        0.23334        0.16589        0.25437        0.23453        0.25134        0.31843        0.28078        0.34607        0.27973        0.25332        0.23754        0.21411        0.23525        0.29351        0.23112        0.12509        0.15198        0.24432        0.24729        0.33808        0.30802        0.02988       -0.42954       -0.90622
2.728147 2.699170 2.670349 2.641685 2.613177 2.584827 2.556632 2.528595 2.500714 2.472989 2.445422 2.418010 2.390756 2.363658 2.336717 2.309932 2.283304 2.256833 2.230518 2.204360 2.178358 2.152513 2.126825 2.101293 2.075918 2.050700 2.025638 2.000733 1.975984 1.951392 1.926957 1.902678 1.878556 1.854591 1.830782 1.807130 1.783634 1.760295 1.737113 1.714087 1.691218 1.668505 1.645950 1.623550 1.601308 1.579222 1.557292 1.535519 1.513903 1.492444 1.471141 1.540837 1.841841 1.526324 1.206057 0.951121 0.551531 0.920499 0.641531 0.883598 0.935959 0.598822 0.718227 0.790950 0.827231 0.637809 0.545856 0.353218 0.108527 0.084563 0.047712 0.087134 0.305722 -0.030867 0.086696 -0.131344 -0.007238 -0.016297 0.086381 0.066952 0.101767 0.179731 0.286568 0.255083 0.486373 0.400781 0.550782 0.529407 0.770920 0.789977 0.883849 0.922018 0.943015 0.946551 1.116885 0.943467 1.144325 0.950258 0.853117 1.019546 0.850593 0.761238 0.616454 0.597200 0.454843 0.419010 0.511636 0.265850 0.199976 0.158446 0.009903 0.205451 -0.005198 0.120591 0.179613 0.256824 0.329590 0.348642 0.424275 0.535510 0.664678 0.539344 0.740195 0.859925 0.640014 0.695913 0.663934 0.591721 0.539121 0.460575 0.296109 0.213992 0.116813 -0.045041 -0.020552 0.057235 -0.100469 -0.060141 0.046117 0.053957 0.113323 0.217974 0.238864 0.307596 0.446248 0.440911 0.434031 0.482602 0.451278 0.333688 0.331938 0.241112 0.055646 0.062561 0.015824 -0.041188 -0.097725 -0.097891 -0.013859 -0.050136 0.072502 0.121569 0.117538 0.263534 0.232292 0.230937 0.288668 0.244398 0.232985 0.211029 0.165675 0.107065 0.098033 0.022307 0.001722 -0.119529 -0.053810 -0.000714 0.000099 0.023866 0.096583 0.085416 0.131481 0.198034 0.265331 0.185292 0.182982 0.111953 0.140046 0.030613 -0.027215 0.029272 -0.019424 0.014571 -0.002008 0.042198 0.091252 0.059008 0.165473 0.106143 0.182732 0.074065 0.157982 0.103527 0.004039 -0.051063 0.000209 -0.022891 -0.057108 -0.054967 0.069242 0.075335 0.001627 0.092695 0.069392 0.087418 0.157529 0.078904 0.073639 0.065431 -0.011217 0.035227 0.013354 0.024836 0.014148 0.008521 0.054164 0.077205 0.084045 0.042485 0.056813 0.036333 0.071077 0.003599 -0.004469 0.036582 0.023758 0.072671 0.048592 0.066817 0.073840 0.049620 0.028539 0.038868 0.008691 -0.039405 -0.024947 -0.019403 0.031396 0.044785 0.103335 0.000196 0.072023 0.045975 -0.013739 0.059784 0.005244 0.003953 0.031204 0.047949 0.028460 0.085657 0.041775 0.062144 0.070741 0.067414 0.063790 0.063179 0.082662 0.030617 -0.008478 0.047194 0.043718 0.043455 0.070497 0.087576 0.008995 0.054489 0.072036 0.002566 -0.002632 -0.059970 -0.026552 0.108707 0.079999 0.045375 0.035682 -0.022565 0.049769 0.020357 -0.072398 0.052010 0.028231 0.059757 0.032798 0.011725 0.002310 0.074630 0.032977 0.023695 0.031605 -0.043784 0.065639 0.113132 -0.001445 -0.008682 -0.007116 -0.004226 -0.037110 -0.022730 -0.056591 -0.012668 -0.090393 -0.017106 -0.036579 0.020572 -0.031727 -0.048500 0.029589 -0.079136 -0.053786 -0.080862 0.050063 0.010757 0.009311 -0.008015 0.069608 -0.027529 -0.074227 0.060741 -0.005363 0.005659 0.007643 0.202491 -0.020799 0.032972 -0.015053 -0.007531 -0.007865 -0.046179 -0.017319 -0.174349 0.016794 -0.037204 -0.015084 0.041233 0.011960 0.109873 -0.017110 -0.007517 -0.033466 -0.028796 -0.074436 0.039987 0.276710 0.149412 0.196713 0.247386 0.331539 0.368215 0.373886 0.037501 -1.064237
0.072396 0.072910 0.074452 0.077022 0.080619 0.085242 0.090890 0.097561 0.105252 0.113962 0.123686 0.134420 0.146157 0.158892 0.172617 0.187320 0.202991 0.219616 0.237180 0.255663 0.275044 0.295299 0.316400 0.338316 0.361011 0.384447 0.408578 0.433357 0.458728 0.484633 0.511006 0.537775 0.564864 0.592189 0.619658 0.647174 0.674634 0.701924 0.728927 0.755516 0.781559 0.806916 0.831439 0.854977 0.877368 0.898448 0.918048 0.935991 0.952100 0.966192 0.978085 0.987594 0.994535 0.998727 0.999989 0.998148 0.993037 0.984495 0.972375 0.956539 0.936865 0.913248 0.885601 0.853860 0.817983 0.777955 0.733789 0.685528 0.633250 0.577064 0.517121 0.453605 0.386745 0.316806 0.244099 0.168976 0.091830 0.013097 0.066746 0.147183 0.227661 0.307591 0.386355 0.463308 0.537780 0.609089 0.676538 0.739429 0.797068 0.848771 0.893877 0.931754 0.961810 0.983502 0.996346 0.999929 0.993917 0.978066 0.952229 0.916368 0.870560 0.815004 0.750026 0.676085 0.593774 0.503819 0.407081 0.304552 0.197345 0.086690 0.026079 0.139537 0.252185 0.362464 0.468785 0.569544 0.663148 0.748047 0.822756 0.885886 0.936177 0.972518 0.993985 0.999863 0.989670 0.963180 0.920444 0.861800 0.787887 0.699647 0.598321 0.485448 0.362841 0.232574 0.096949 0.041540 0.180245 0.316417 0.447256 0.569972 0.681843 0.780283 0.862903 0.927582 0.972519 0.996303 0.997954 0.976976 0.933388 0.867750 0.781172 0.675316 0.552379 0.415058 0.266507 0.110271 0.049784 0.209572 0.364877 0.511470 0.645226 0.762245 0.858974 0.932321 0.979774 0.999492 0.990394 0.952223 0.885590 0.791988 0.673790 0.534200 0.377195 0.207422 0.030077 0.149246 0.324729 0.490510 0.640890 0.770527 0.874648 0.949231 0.991181 0.998475 0.970285 0.907043 0.810484 0.683628 0.530704 0.357052 0.168946 0.026620 0.222166 0.410023 0.582624 0.732822 0.854193 0.941335 0.990127 0.997953 0.963863 0.888676 0.775009 0.627217 0.451273 0.254546 0.045517 0.166563 0.372081 0.561493 0.725773 0.856865 0.948094 0.994540 0.993332 0.943861 0.847880 0.709500 0.535055 0.332852 0.112809 0.114010 0.335936 0.541288 0.719006 0.859250 0.953987 0.997478 0.986666 0.921434 0.804698 0.642342 0.442964 0.217471 0.021485 0.260198 0.484681 0.681494 0.838560 0.945946 0.996524 0.986497 0.915727 0.787861 0.610197 0.393338 0.150604 0.102750 0.350471 0.576344 0.765263 0.904278 0.983512 0.996924 0.942828 0.824127 0.648239 0.426709 0.174499 0.090956 0.350960 0.586830 0.781279 0.919701 0.991322 0.990100 0.915308 0.771721 0.569408 0.323092 0.051148 0.225718 0.486050 0.709282 0.877404 0.976462 0.997782 0.938807 0.803458 0.601984 0.350263 0.068636 0.219695 0.490552 0.720816 0.890419 0.984161 0.993148 0.915719 0.757767 0.532409 0.258989 0.038518 0.333544 0.599294 0.811208 0.949249 0.999898 0.957559 0.825279 0.614655 0.344934 0.041347 0.267195 0.550824 0.781618 0.936385 0.999091 0.962601 0.829618 0.612615 0.332806 0.018159 0.299330 0.586854 0.814217 0.957043 0.999485 0.936107 0.772684 0.525832 0.221447 0.107920 0.426472 0.699057 0.895073 0.991991 0.978046 0.853807 0.632370 0.338137 0.004230 0.331134 0.629004 0.854232 0.979687 0.989656 0.881931 0.668376 0.373770 0.033081 0.312597 0.620962 0.853698 0.981310 0.986988 0.868979 0.641104 0.331322 0.021554 0.372634 0.676623 0.893698 0.994814 0.965737 0.809223 0.544968 0.207328 0.159017 0.504904 0.783245 0.955543 0.997310
1.000000 1.000000 1.000000 1.000000 1.000000 1.000000 1.000000 1.000000 1.000000 1.000000 1.000000 1.000000 1.000000 1.000000 1.000000 1.000000 1.000000 1.000000 1.000000 1.000000 1.000000 1.000000 1.000000 1.000000 1.000000 1.000000 1.000000 1.000000 1.000000 1.000000 1.000000 1.000000 1.000000 1.000000 1.000000 1.000000 1.000000 1.000000 1.000000 1.000000 1.000000 1.000000 1.000000 1.000000 1.000000 1.000000 1.000000 1.000000 1.000000 1.000000 1.000000 1.000000 0.918876 0.918876 0.905119 0.905119 0.905119 0.905119 0.905119 0.905119 0.905119 0.905119 0.905119 0.905119 0.905119 0.905119 0.905119 0.905119 0.905119 0.905119 0.905119 0.905119 0.905119 0.905119 0.905119 0.905119 0.905119 0.905119 0.905119 0.905119 0.905119 0.905119 0.905119 0.905119 0.905119 0.905119 0.905119 0.905119 0.905119 0.905119 0.905119 0.905119 0.905119 0.905119 0.905119 0.901175 0.906078 0.907968 0.906454 0.909991 0.910053 0.909343 0.909681 0.909341 0.909675 0.911068 0.921561 0.932568 0.943585 0.944119 0.949291 0.953603 0.956037 0.956884 0.958453 0.968476 0.967116 0.966621 0.967301 0.968733 0.970844 0.969591 0.969134 0.972297 0.972945 0.971366 0.969100 0.968492 0.967895 0.967999 0.967634 0.967519 0.967387 0.967897 0.968097 0.968243 0.968387 0.968442 0.969457 0.970610 0.973011 0.974005 0.973868 0.972802 0.970933 0.974955 0.975857 0.975607 0.975561 0.975101 0.975359 0.961213 0.956924 0.956834 0.953854 0.952571 0.949331 0.948059 0.946707 0.947022 0.945690 0.945397 0.942446 0.928355 0.914529 0.903633 0.924147 0.908778 0.897739 0.872422 0.872945 0.866926 0.867428 0.858614 0.853211 0.848899 0.846035 0.847714 0.844851 0.849159 0.846183 0.831851 0.835129 0.831947 0.800959 0.786182 0.768323 0.770014 0.767092 0.768239 0.767941 0.762447 0.770955 0.764104 0.762242 0.753573 0.733292 0.701435 0.688441 0.699144 0.709077 0.707516 0.703930 0.688848 0.656586 0.669230 0.689964 0.685753 0.688139 0.680097 0.673835 0.680357 0.681793 0.677445 0.670901 0.669937 0.669655 0.678255 0.682951 0.677772 0.668993 0.654691 0.642933 0.629177 0.644820 0.648852 0.618194 0.612350 0.604076 0.597726 0.584629 0.549411 0.549213 0.527197 0.514992 0.517565 0.519679 0.519200 0.529163 0.530123 0.508160 0.531121 0.540900 0.567819 0.543122 0.539184 0.540473 0.550036 0.533253 0.508419 0.499133 0.500041 0.513287 0.548582 0.589789 0.580816 0.569725 0.556378 0.571630 0.547726 0.556654 0.574839 0.553187 0.478179 0.435631 0.432659 0.397929 0.388404 0.379701 0.375339 0.387593 0.377400 0.370145 0.356922 0.345075 0.286528 0.250909 0.233521 0.209658 0.214988 0.227585 0.211169 0.211918 0.247200 0.293519 0.292511 0.283905 0.271787 0.274082 0.245400 0.260375 0.286678 0.244486 0.240268 0.234181 0.209572 0.196900 0.160416 0.186602 0.105794 0.089877 0.092616 0.107894 0.117370 0.115457 0.123245 0.098804 0.118911 0.110557 0.074696 0.059408 0.075403 0.067545 0.036730 0.045888 0.057829 0.043667 0.035415 0.059166 0.058775 0.067191 0.058003 0.058532 0.108693 0.140437 0.127309 0.127821 0.110714 0.114376 0.088629 0.078041 0.068859 0.061085 0.008675 -0.019634 -0.019634 -0.017168 -0.017168 -0.017168 -0.017168 -0.017168 -0.017168 -0.017168 -0.017168 -0.017168 -0.018723 -0.018723 -0.018723 -0.018723 -0.018723 -0.018723 -0.018723 -0.018723 -0.018723 0.006572 0.006572 0.006572 0.006572 0.006572 0.006572 0.006572 0.006572 0.006572
0.000000 0.000000 0.000000 0.000000 0.000000 0.000000 0.000000 0.000000 0.000000 0.000000 0.000000 0.000000 0.000000 0.000000 0.000000 0.000000 0.000000 0.000000 0.000000 0.000000 0.000000 0.000000 0.000000 0.000000 0.000000 0.000000 0.000000 0.000000 0.000000 0.000000 0.000000 0.000000 0.000000 0.000000 0.000000 0.000000 0.000000 0.000000 0.000000 0.000000 0.000000 0.000000 0.000000 0.000000 0.000000 0.000000 0.000000 0.000000 0.000000 0.000000 0.000000 0.000000 0.181818 0.181818 0.199007 0.199007 0.199007 0.199007 0.199007 0.199007 0.199007 0.199007 0.199007 0.199007 0.199007 0.199007 0.199007 0.199007 0.199007 0.199007 0.199007 0.199007 0.199007 0.199007 0.199007 0.199007 0.199007 0.199007 0.199007 0.199007 0.199007 0.199007 0.199007 0.199007 0.199007 0.199007 0.199007 0.199007 0.199007 0.199007 0.199007 0.199007 0.199007 0.199007 0.199007 0.230940 0.230940 0.230940 0.230940 0.230940 0.230940 0.230940 0.230940 0.230940 0.230940 0.230940 0.230940 0.230940 0.230940 0.230940 0.230940 0.230940 0.230940 0.230940 0.230940 0.230940 0.230940 0.230940 0.230940 0.230940 0.230940 0.230940 0.230940 0.244339 0.244339 0.244339 0.244339 0.244339 0.244339 0.244339 0.244339 0.244339 0.244339 0.244339 0.244339 0.244339 0.244339 0.244339 0.244339 0.244339 0.244339 0.244339 0.244339 0.244339 0.244339 0.244339 0.251976 0.251976 0.251976 0.251976 0.251976 0.251976 0.251976 0.251976 0.251976 0.251976 0.251976 0.251976 0.251976 0.251976 0.251976 0.251976 0.251976 0.251976 0.251976 0.251976 0.264906 0.264906 0.264906 0.264906 0.264906 0.264906 0.264906 0.264906 0.264906 0.264906 0.264906 0.264906 0.264906 0.264906 0.264906 0.264906 0.264906 0.264906 0.264906 0.264906 0.264906 0.264906 0.264906 0.264906 0.264906 0.264906 0.264906 0.264906 0.264906 0.264906 0.264906 0.264906 0.264906 0.264906 0.264906 0.264906 0.264906 0.264906 0.264906 0.264906 0.264906 0.264906 0.264906 0.264906 0.264906 0.264906 0.264906 0.264906 0.264906 0.264906 0.264906 0.264906 0.264906 0.264906 0.264906 0.264906 0.264906 0.264906 0.264906 0.264906 0.264906 0.264906 0.264906 0.264906 0.264906 0.264906 0.264906 0.264906 0.264906 0.264906 0.264906 0.264906 0.264906 0.264906 0.264906 0.269680 0.269680 0.269680 0.269680 0.269680 0.269680 0.269680 0.269680 0.269680 0.269680 0.269680 0.269680 0.264906 0.264906 0.264906 0.264906 0.264906 0.264906 0.264906 0.264906 0.264906 0.264906 0.264906 0.264906 0.269680 0.269680 0.269680 0.269680 0.269680 0.269680 0.269680 0.269680 0.269680 0.269680 0.269680 0.264906 0.264906 0.264906 0.264906 0.264906 0.264906 0.264906 0.264906 0.264906 0.264906 0.264906 0.256074 0.256074 0.256074 0.256074 0.256074 0.256074 0.256074 0.256074 0.256074 0.256074 0.256074 0.264906 0.264906 0.264906 0.264906 0.264906 0.264906 0.264906 0.264906 0.264906 0.264906 0.269680 0.269680 0.269680 0.269680 0.269680 0.269680 0.269680 0.269680 0.269680 0.256074 0.256074 0.256074 0.256074 0.256074 0.256074 0.256074 0.256074 0.256074 0.256074 0.260378 0.260378 0.260378 0.260378 0.260378 0.260378 0.260378 0.260378 0.260378 0.256074 0.256074 0.256074 0.256074 0.256074 0.256074 0.256074 0.256074 0.256074 0.251976 0.251976 0.251976 0.251976 0.251976 0.251976 0.251976 0.251976 0.251976 0.264906 0.264906 0.264906 0.264906 0.264906 0.264906 0.264906 0.264906 0.264906
