# Output from CTFFind version 4.1.9, run on 2019-11-03 19:33:44
# Input file: stack6_bm3d_averaged_1_4.25_0_1000_half.mrc ; Number of micrographs: 1
# Pixel size: 3.000 Angstroms ; acceleration voltage: 300.0 keV ; spherical aberration: 0.00 mm ; amplitude contrast: 0.07
# Box size: 512 pixels ; min. res.: 30.0 Angstroms ; max. res.: 5.0 Angstroms ; min. def.: 5000.0 um; max. def. 50000.0 um; num. frames averaged: 1
# 6 lines per micrograph: #1 - spatial frequency (1/Angstroms); #2 - 1D rotational average of spectrum (assuming no astigmatism); #3 - 1D rotational average of spectrum; #4 - CTF fit; #5 - cross-correlation between spectrum and CTF fit; #6 - 2sigma of expected cross correlation of noise
0.000000 0.000651 0.001302 0.001953 0.002604 0.003255 0.003906 0.004557 0.005208 0.005859 0.006510 0.007161 0.007812 0.008464 0.009115 0.009766 0.010417 0.011068 0.011719 0.012370 0.013021 0.013672 0.014323 0.014974 0.015625 0.016276 0.016927 0.017578 0.018229 0.018880 0.019531 0.020182 0.020833 0.021484 0.022135 0.022786 0.023438 0.024089 0.024740 0.025391 0.026042 0.026693 0.027344 0.027995 0.028646 0.029297 0.029948 0.030599 0.031250 0.031901 0.032552 0.033203 0.033854 0.034505 0.035156 0.035807 0.036458 0.037109 0.037760 0.038411 0.039062 0.039714 0.040365 0.041016 0.041667 0.042318 0.042969 0.043620 0.044271 0.044922 0.045573 0.046224 0.046875 0.047526 0.048177 0.048828 0.049479 0.050130 0.050781 0.051432 0.052083 0.052734 0.053385 0.054036 0.054688 0.055339 0.055990 0.056641 0.057292 0.057943 0.058594 0.059245 0.059896 0.060547 0.061198 0.061849 0.062500 0.063151 0.063802 0.064453 0.065104 0.065755 0.066406 0.067057 0.067708 0.068359 0.069010 0.069661 0.070312 0.070964 0.071615 0.072266 0.072917 0.073568 0.074219 0.074870 0.075521 0.076172 0.076823 0.077474 0.078125 0.078776 0.079427 0.080078 0.080729 0.081380 0.082031 0.082682 0.083333 0.083984 0.084635 0.085286 0.085938 0.086589 0.087240 0.087891 0.088542 0.089193 0.089844 0.090495 0.091146 0.091797 0.092448 0.093099 0.093750 0.094401 0.095052 0.095703 0.096354 0.097005 0.097656 0.098307 0.098958 0.099609 0.100260 0.100911 0.101562 0.102214 0.102865 0.103516 0.104167 0.104818 0.105469 0.106120 0.106771 0.107422 0.108073 0.108724 0.109375 0.110026 0.110677 0.111328 0.111979 0.112630 0.113281 0.113932 0.114583 0.115234 0.115885 0.116536 0.117188 0.117839 0.118490 0.119141 0.119792 0.120443 0.121094 0.121745 0.122396 0.123047 0.123698 0.124349 0.125000 0.125651 0.126302 0.126953 0.127604 0.128255 0.128906 0.129557 0.130208 0.130859 0.131510 0.132161 0.132812 0.133464 0.134115 0.134766 0.135417 0.136068 0.136719 0.137370 0.138021 0.138672 0.139323 0.139974 0.140625 0.141276 0.141927 0.142578 0.143229 0.143880 0.144531 0.145182 0.145833 0.146484 0.147135 0.147786 0.148438 0.149089 0.149740 0.150391 0.151042 0.151693 0.152344 0.152995 0.153646 0.154297 0.154948 0.155599 0.156250 0.156901 0.157552 0.158203 0.158854 0.159505 0.160156 0.160807 0.161458 0.162109 0.162760 0.163411 0.164062 0.164714 0.165365 0.166016 0.166667 0.167318 0.167969 0.168620 0.169271 0.169922 0.170573 0.171224 0.171875 0.172526 0.173177 0.173828 0.174479 0.175130 0.175781 0.176432 0.177083 0.177734 0.178385 0.179036 0.179688 0.180339 0.180990 0.181641 0.182292 0.182943 0.183594 0.184245 0.184896 0.185547 0.186198 0.186849 0.187500 0.188151 0.188802 0.189453 0.190104 0.190755 0.191406 0.192057 0.192708 0.193359 0.194010 0.194661 0.195312 0.195964 0.196615 0.197266 0.197917 0.198568 0.199219 0.199870 0.200521 0.201172 0.201823 0.202474 0.203125 0.203776 0.204427 0.205078 0.205729 0.206380 0.207031 0.207682 0.208333 0.208984 0.209635 0.210286 0.210938 0.211589 0.212240 0.212891 0.213542 0.214193 0.214844 0.215495 0.216146 0.216797 0.217448 0.218099 0.218750 0.219401 0.220052 0.220703 0.221354 0.222005 0.222656 0.223307 0.223958 0.224609 0.225260 0.225911 0.226562 0.227214 0.227865 0.228516 0.229167 0.229818 0.230469 0.231120 0.231771 0.232422 0.233073 0.233724 0.234375 0.235026 0.235677
       0.30203        0.30203        0.30203        0.30203        0.30203        0.30203        0.30203        0.30203        0.30203        0.30203        0.30203        0.30203        0.30203        0.30203        0.30203        0.30203        0.30203        0.30203        0.30203        0.30203        0.30203        0.30203        0.30203        0.30203        0.30203        0.30203        0.30203        0.30203        0.30203        0.30203        0.30203        0.30203        0.30203        0.30203        0.30203        0.30203        0.30203        0.30203        0.30203        0.30203        0.30203        0.30203        0.30203        0.30203        0.30203        0.30203        0.30203        0.30203        0.30203        0.30203        0.30203        0.60775        0.74842        0.36163        0.21023        0.13159       -0.15062        0.11368        0.02460        0.03424        0.09372        0.31965        0.35767        0.29036        0.17236       -0.03299        0.00033        0.04539       -0.15552       -0.16706       -0.09052       -0.11846       -0.26119       -0.16338       -0.29363       -0.29431       -0.30272       -0.37213       -0.44834       -0.41033       -0.32421       -0.28803       -0.38293       -0.29006       -0.35331       -0.28968       -0.21724       -0.16644       -0.12749       -0.04465       -0.01928        0.09705        0.13659        0.21555        0.32951        0.39282        0.36552        0.46944        0.56175        0.57398        0.65745        0.61632        0.66146        0.60557        0.63276        0.63229        0.56799        0.57278        0.57440        0.40020        0.33233        0.35628        0.34551        0.18426        0.13039        0.09028        0.07052        0.07052       -0.03027        0.03108       -0.00650       -0.04971        0.07715        0.15963        0.25922        0.34264        0.33257        0.37063        0.48469        0.51574        0.45089        0.65309        0.52811        0.49529        0.56097        0.51267        0.51615        0.46603        0.36917        0.32469        0.24401        0.20241        0.17133        0.16534        0.13757        0.07988        0.13385        0.15329        0.19503        0.17620        0.24747        0.27909        0.32796        0.45154        0.42293        0.42102        0.46981        0.51287        0.50055        0.46931        0.38136        0.40495        0.35273        0.27969        0.22510        0.23315        0.20425        0.17024        0.15200        0.18482        0.17602        0.23023        0.29543        0.33751        0.39367        0.39288        0.45271        0.46625        0.45003        0.43034        0.39701        0.40378        0.38811        0.34712        0.30519        0.28763        0.23807        0.25676        0.25086        0.20273        0.24841        0.24295        0.25440        0.32021        0.35748        0.38619        0.38969        0.40154        0.40191        0.40279        0.39979        0.29325        0.28735        0.25242        0.26621        0.22521        0.19302        0.26096        0.30920        0.29458        0.27264        0.32671        0.26974        0.35556        0.34753        0.35469        0.36555        0.37497        0.31140        0.30742        0.29232        0.27620        0.26416        0.24967        0.26054        0.29054        0.28693        0.30940        0.35023        0.36932        0.34373        0.33519        0.34794        0.31277        0.29603        0.29243        0.26917        0.27661        0.26244        0.29535        0.29933        0.28222        0.29599        0.30568        0.32007        0.32936        0.32971        0.27817        0.25884        0.28504        0.27459        0.26374        0.25549        0.22642        0.24517        0.25605        0.24652        0.26366        0.28019        0.32038        0.31288        0.29936        0.30342        0.23181        0.22005        0.27033        0.24025        0.20394        0.26145        0.31771        0.25843        0.29567        0.29562        0.29608        0.30788        0.28337        0.27069        0.29005        0.26622        0.28794        0.24241        0.26152        0.24932        0.29093        0.29067        0.31655        0.31520        0.31350        0.21874        0.28228        0.27976        0.22537        0.26892        0.25684        0.29316        0.28267        0.30481        0.29816        0.34900        0.29331        0.25905        0.24095        0.21822        0.23914        0.26141        0.29051        0.28821        0.28880        0.29539        0.27740        0.27332        0.26696        0.24135        0.28119        0.24032        0.22792        0.22248        0.30106        0.29701        0.28401        0.28516        0.21996        0.28686        0.25399        0.20076        0.23012        0.26821        0.27704        0.30412        0.21060        0.19123        0.25388        0.24313        0.26312        0.22141        0.22009        0.20584        0.23026        0.25323        0.21769        0.25887        0.23277        0.25738        0.19011        0.27053        0.30280        0.19351        0.15500        0.14197        0.12996        0.22684        0.14830        0.09308        0.31796        0.19420        0.09500        0.08856        0.11542        0.16439        0.21522       -0.05628       -0.74084       -1.07669
2.841969 2.813889 2.785953 2.758161 2.730512 2.703007 2.675646 2.648429 2.621355 2.594425 2.567639 2.540997 2.514498 2.488143 2.461931 2.435864 2.409940 2.384160 2.358524 2.333031 2.307682 2.282477 2.257415 2.232498 2.207724 2.183093 2.158607 2.134264 2.110065 2.086009 2.062098 2.038330 2.014706 1.991225 1.967888 1.944695 1.921646 1.898741 1.875979 1.853361 1.830886 1.808556 1.786369 1.764326 1.742426 1.720670 1.699058 1.677590 1.656266 1.635085 1.614048 1.944718 2.258541 1.646434 1.573119 1.291249 0.773524 1.159689 1.028702 1.056163 0.920829 1.503421 1.414968 1.413790 1.172467 0.854390 0.702664 0.936015 0.703555 0.394149 0.508653 0.618375 0.365484 0.412566 0.258127 0.191953 0.126171 0.125029 -0.123209 -0.055357 0.062900 0.036247 -0.001257 0.088323 -0.055631 -0.021819 0.128924 0.196904 0.247357 0.313281 0.348203 0.602611 0.534288 0.634730 0.855158 0.933104 0.847364 1.128422 1.132605 1.195245 1.274304 1.166296 1.318722 1.161372 1.127733 1.285961 1.082068 1.029727 1.126687 0.896407 0.625195 0.661034 0.717339 0.433735 0.345382 0.258454 0.161128 0.153868 0.011946 0.117897 0.046167 -0.075383 0.070018 0.194506 0.298412 0.501048 0.502978 0.476315 0.661522 0.781502 0.539351 0.929922 0.770304 0.715459 0.764103 0.635120 0.708039 0.680286 0.427626 0.393036 0.248095 0.186661 0.133556 0.019558 0.061422 -0.090959 -0.009245 -0.013692 0.099215 -0.021910 0.198555 0.178664 0.173747 0.386587 0.461897 0.374821 0.338367 0.538451 0.593253 0.445064 0.361530 0.340593 0.301068 0.194706 0.062358 0.055639 0.020226 0.012157 -0.096273 -0.041049 -0.093750 0.068003 0.031240 0.182213 0.232430 0.253533 0.349236 0.340082 0.464198 0.351828 0.407625 0.374416 0.262092 0.316910 0.166435 0.201092 0.079388 0.123045 0.064183 0.065098 -0.020769 0.095083 0.029646 0.132060 0.230417 0.229110 0.287804 0.285299 0.297464 0.285369 0.296666 0.195148 0.086357 0.108986 0.043670 0.031644 -0.041084 -0.034032 0.070398 0.140871 0.079527 0.087720 0.094177 0.134410 0.191612 0.160502 0.171039 0.223842 0.138025 0.082896 0.077778 0.056533 0.043333 -0.030788 0.012221 0.079049 0.002333 0.086923 0.096727 0.183767 0.203283 0.151410 0.158929 0.172244 0.081640 0.089655 0.096817 0.038228 0.019406 0.072926 0.075446 0.092315 0.060869 0.097189 0.093336 0.138069 0.144497 0.071356 0.029005 -0.010182 0.057664 0.002535 0.044245 -0.029951 -0.059838 0.007760 -0.018284 -0.020264 0.022255 0.039537 0.112903 0.109039 0.038087 0.068052 -0.075338 -0.006400 0.041507 -0.056538 -0.066017 0.057576 0.088703 -0.000535 0.062915 0.047842 0.094461 0.097080 0.009827 0.033059 0.119146 -0.030897 0.075069 -0.008704 0.038525 -0.021676 0.105546 0.040084 0.105961 0.109060 0.097714 -0.056123 0.071467 0.033890 -0.027386 0.039918 0.025751 0.050452 0.063677 0.165834 -0.004807 0.184496 0.080558 -0.038174 0.017072 -0.061229 0.011064 0.051669 0.057143 0.075194 0.051609 0.102222 0.077307 0.021732 0.052112 -0.006865 0.082559 0.017359 -0.048966 0.010038 0.097478 0.066338 0.089882 0.106495 -0.031812 0.088378 0.022542 -0.079641 0.026623 0.041807 0.102744 0.093837 -0.035774 -0.047317 0.055286 0.053476 0.004236 0.034687 -0.048920 0.037324 0.036257 0.066248 0.009748 0.103513 0.030932 0.098806 -0.041332 0.165266 0.205753 -0.015678 -0.042308 -0.057142 -0.171970 0.154099 -0.032208 0.008861 0.501054 0.265553 0.139297 0.145146 0.261457 0.216263 0.319320 -0.076683 -1.689084
0.072396 0.072835 0.074152 0.076347 0.079418 0.083367 0.088191 0.093889 0.100460 0.107902 0.116213 0.125388 0.135426 0.146320 0.158066 0.170657 0.184085 0.198343 0.213418 0.229300 0.245974 0.263425 0.281636 0.300585 0.320250 0.340606 0.361624 0.383274 0.405519 0.428323 0.451643 0.475433 0.499643 0.524218 0.549100 0.574226 0.599527 0.624930 0.650357 0.675724 0.700944 0.725921 0.750558 0.774750 0.798389 0.821359 0.843542 0.864814 0.885047 0.904109 0.921865 0.938176 0.952900 0.965895 0.977014 0.986114 0.993048 0.997672 0.999845 0.999426 0.996283 0.990285 0.981309 0.969241 0.953976 0.935420 0.913491 0.888122 0.859260 0.826870 0.790935 0.751461 0.708472 0.662017 0.612170 0.559032 0.502730 0.443418 0.381283 0.316539 0.249431 0.180236 0.109261 0.036844 0.036646 0.110814 0.185234 0.259455 0.333003 0.405381 0.476073 0.544551 0.610272 0.672687 0.731244 0.785395 0.834600 0.878330 0.916078 0.947364 0.971740 0.988796 0.998172 0.999557 0.992704 0.977430 0.953625 0.921258 0.880383 0.831139 0.773762 0.708579 0.636017 0.556601 0.470954 0.379795 0.283937 0.184280 0.081810 0.022415 0.127270 0.231574 0.334105 0.433610 0.528824 0.618487 0.701355 0.776226 0.841956 0.897479 0.941826 0.974145 0.993720 0.999990 0.992563 0.971233 0.935993 0.887046 0.824807 0.749916 0.663234 0.565835 0.459009 0.344243 0.223210 0.097743 0.030184 0.158485 0.284998 0.407516 0.523830 0.631767 0.729232 0.814257 0.885039 0.939986 0.977756 0.997297 0.997881 0.979135 0.941059 0.884049 0.808902 0.716820 0.609395 0.488599 0.356753 0.216488 0.070701 0.077496 0.224850 0.368026 0.503686 0.628573 0.739585 0.833863 0.908870 0.962465 0.992976 0.999257 0.980744 0.937486 0.870175 0.780145 0.669368 0.540421 0.396441 0.241058 0.078315 0.087434 0.251633 0.409650 0.556902 0.689005 0.801893 0.891969 0.956215 0.992318 0.998758 0.974888 0.920981 0.838261 0.728890 0.595938 0.443310 0.275645 0.098196 0.083336 0.262971 0.434649 0.592433 0.730725 0.844469 0.929348 0.981966 0.999999 0.982317 0.929062 0.841687 0.722940 0.576809 0.408405 0.223803 0.029837 0.166138 0.356524 0.533775 0.690697 0.820752 0.918346 0.979085 0.999998 0.979702 0.918509 0.818466 0.683320 0.518404 0.330455 0.127363 0.082155 0.288908 0.483637 0.657429 0.802147 0.910810 0.977965 0.999983 0.975282 0.904460 0.790332 0.637855 0.453945 0.247197 0.027500 0.194412 0.407487 0.600899 0.764605 0.889893 0.969865 0.999844 0.977686 0.903961 0.781994 0.617761 0.419637 0.198001 0.035280 0.267478 0.485681 0.677523 0.831898 0.939622 0.994024 0.991381 0.931225 0.816448 0.653213 0.450683 0.220532 0.023690 0.267330 0.495522 0.694070 0.850376 0.954252 0.998632 0.980086 0.899140 0.760334 0.572026 0.345940 0.096476 0.160177 0.407073 0.627627 0.806753 0.931914 0.994039 0.988237 0.914232 0.776487 0.584004 0.349795 0.090052 0.176948 0.432104 0.656856 0.834566 0.951761 0.999223 0.972763 0.873646 0.708623 0.489541 0.232552 0.043031 0.316147 0.565606 0.771727 0.917925 0.992093 0.987671 0.904286 0.747916 0.530550 0.269337 0.014721 0.298412 0.558198 0.772191 0.922006 0.994415 0.982573 0.886737 0.714403 0.479796 0.202776 0.092782 0.381029 0.636367 0.835768 0.960879 0.999782 0.948203 0.810061 0.597278 0.328838 0.029157 0.274080 0.552455 0.779497 0.933228 0.998365 0.967913 0.844007 0.637891 0.368990 0.063164 0.249721 0.538681 0.774691 0.933647
1.000000 1.000000 1.000000 1.000000 1.000000 1.000000 1.000000 1.000000 1.000000 1.000000 1.000000 1.000000 1.000000 1.000000 1.000000 1.000000 1.000000 1.000000 1.000000 1.000000 1.000000 1.000000 1.000000 1.000000 1.000000 1.000000 1.000000 1.000000 1.000000 1.000000 1.000000 1.000000 1.000000 1.000000 1.000000 1.000000 1.000000 1.000000 1.000000 1.000000 1.000000 1.000000 1.000000 1.000000 1.000000 1.000000 1.000000 1.000000 1.000000 1.000000 1.000000 1.000000 0.816567 0.816567 0.816567 0.816567 0.816567 0.816567 0.816567 0.794878 0.794878 0.794878 0.794878 0.794878 0.794878 0.794878 0.794878 0.794878 0.794878 0.794878 0.794878 0.794878 0.794878 0.794878 0.794878 0.794878 0.794878 0.794878 0.794878 0.794878 0.794878 0.794878 0.794878 0.794878 0.794878 0.794878 0.794878 0.794878 0.794878 0.794878 0.794878 0.794878 0.794878 0.794878 0.794878 0.794878 0.794878 0.794878 0.794878 0.794878 0.794878 0.794878 0.794878 0.941171 0.940341 0.941589 0.942538 0.944524 0.943422 0.942409 0.941600 0.940933 0.940660 0.940769 0.941150 0.942236 0.942229 0.945547 0.946431 0.955004 0.958962 0.959009 0.958061 0.956581 0.970164 0.969147 0.967957 0.967665 0.968488 0.965088 0.965597 0.962395 0.963043 0.965877 0.966425 0.962761 0.962309 0.961221 0.960300 0.959572 0.959103 0.959349 0.959408 0.958877 0.959612 0.960363 0.958539 0.960644 0.957532 0.958132 0.955179 0.955337 0.956707 0.945589 0.945827 0.940164 0.934733 0.933485 0.934397 0.932693 0.933319 0.934221 0.934857 0.935439 0.935655 0.935759 0.935570 0.935241 0.932608 0.923432 0.920915 0.918661 0.920018 0.923427 0.926729 0.926700 0.924928 0.922239 0.916186 0.909401 0.894695 0.887088 0.883715 0.886215 0.885370 0.886373 0.885633 0.881712 0.879855 0.880224 0.879036 0.883235 0.883869 0.880908 0.871464 0.868761 0.864352 0.866599 0.869302 0.869622 0.868435 0.862291 0.855021 0.848322 0.854810 0.857208 0.866187 0.860345 0.859522 0.858166 0.849925 0.844501 0.834988 0.834726 0.836165 0.832375 0.837940 0.834507 0.822699 0.796026 0.815307 0.811695 0.811063 0.816065 0.825807 0.828129 0.822227 0.804205 0.790401 0.778475 0.779095 0.782721 0.779999 0.783156 0.779487 0.766877 0.735527 0.737635 0.716301 0.727773 0.737954 0.731050 0.725171 0.713483 0.713338 0.703524 0.680983 0.688263 0.642279 0.644032 0.636966 0.616618 0.622645 0.613928 0.617408 0.619556 0.603180 0.570355 0.570293 0.569777 0.583699 0.542751 0.530572 0.535404 0.533565 0.535352 0.536515 0.528822 0.518698 0.493021 0.506917 0.509001 0.493696 0.494172 0.509885 0.503527 0.489873 0.472746 0.465534 0.476376 0.503903 0.503854 0.506894 0.512641 0.472604 0.444121 0.470302 0.483128 0.491881 0.480805 0.467083 0.462570 0.478389 0.453358 0.474142 0.471442 0.485735 0.451437 0.400706 0.357422 0.309236 0.329108 0.340846 0.340579 0.335307 0.343583 0.319368 0.295239 0.293139 0.292328 0.321474 0.324421 0.306274 0.312960 0.312743 0.311092 0.310742 0.308634 0.312234 0.317880 0.338108 0.343110 0.282479 0.262899 0.219584 0.213374 0.224319 0.249095 0.266637 0.252823 0.253630 0.129933 0.152533 0.119434 0.135895 0.135895 0.135895 0.135895 0.135895 0.135895 0.135895 0.135895 0.135895 0.156767 0.156767 0.156767 0.156767 0.156767 0.156767 0.156767 0.156767 0.156767 0.156767 0.156767 0.156767 0.156767 0.156767 0.156767 0.156767 0.156767 0.156767 0.156767 0.156767
0.000000 0.000000 0.000000 0.000000 0.000000 0.000000 0.000000 0.000000 0.000000 0.000000 0.000000 0.000000 0.000000 0.000000 0.000000 0.000000 0.000000 0.000000 0.000000 0.000000 0.000000 0.000000 0.000000 0.000000 0.000000 0.000000 0.000000 0.000000 0.000000 0.000000 0.000000 0.000000 0.000000 0.000000 0.000000 0.000000 0.000000 0.000000 0.000000 0.000000 0.000000 0.000000 0.000000 0.000000 0.000000 0.000000 0.000000 0.000000 0.000000 0.000000 0.000000 0.000000 0.173422 0.173422 0.173422 0.173422 0.173422 0.173422 0.173422 0.191565 0.191565 0.191565 0.191565 0.191565 0.191565 0.191565 0.191565 0.191565 0.191565 0.191565 0.191565 0.191565 0.191565 0.191565 0.191565 0.191565 0.191565 0.191565 0.191565 0.191565 0.191565 0.191565 0.191565 0.191565 0.191565 0.191565 0.191565 0.191565 0.191565 0.191565 0.191565 0.191565 0.191565 0.191565 0.191565 0.191565 0.191565 0.191565 0.191565 0.191565 0.191565 0.191565 0.191565 0.222222 0.222222 0.222222 0.222222 0.222222 0.222222 0.222222 0.222222 0.222222 0.222222 0.222222 0.222222 0.222222 0.222222 0.222222 0.222222 0.222222 0.222222 0.222222 0.222222 0.222222 0.222222 0.222222 0.222222 0.222222 0.222222 0.222222 0.222222 0.222222 0.222222 0.234082 0.234082 0.234082 0.234082 0.234082 0.234082 0.234082 0.234082 0.234082 0.234082 0.234082 0.234082 0.234082 0.234082 0.234082 0.234082 0.234082 0.234082 0.234082 0.234082 0.234082 0.234082 0.234082 0.234082 0.234082 0.244339 0.244339 0.244339 0.244339 0.244339 0.244339 0.244339 0.244339 0.244339 0.244339 0.244339 0.244339 0.244339 0.244339 0.244339 0.244339 0.244339 0.244339 0.244339 0.244339 0.244339 0.248069 0.248069 0.248069 0.248069 0.248069 0.248069 0.248069 0.248069 0.248069 0.248069 0.248069 0.248069 0.248069 0.248069 0.248069 0.248069 0.248069 0.248069 0.248069 0.248069 0.248069 0.248069 0.248069 0.248069 0.248069 0.248069 0.248069 0.248069 0.248069 0.248069 0.248069 0.248069 0.248069 0.248069 0.248069 0.248069 0.248069 0.256074 0.256074 0.256074 0.256074 0.256074 0.256074 0.256074 0.256074 0.256074 0.256074 0.256074 0.256074 0.256074 0.256074 0.256074 0.256074 0.264906 0.264906 0.264906 0.264906 0.264906 0.264906 0.264906 0.264906 0.264906 0.264906 0.264906 0.264906 0.264906 0.264906 0.248069 0.248069 0.248069 0.248069 0.248069 0.248069 0.248069 0.248069 0.248069 0.248069 0.248069 0.248069 0.248069 0.248069 0.248069 0.260378 0.260378 0.260378 0.260378 0.260378 0.260378 0.260378 0.260378 0.260378 0.260378 0.260378 0.260378 0.260378 0.256074 0.256074 0.256074 0.256074 0.256074 0.256074 0.256074 0.256074 0.256074 0.256074 0.256074 0.256074 0.256074 0.260378 0.260378 0.260378 0.260378 0.260378 0.260378 0.260378 0.260378 0.260378 0.260378 0.260378 0.260378 0.251976 0.251976 0.251976 0.251976 0.251976 0.251976 0.251976 0.251976 0.251976 0.251976 0.251976 0.251976 0.256074 0.256074 0.256074 0.256074 0.256074 0.256074 0.256074 0.256074 0.256074 0.256074 0.256074 0.251976 0.251976 0.251976 0.251976 0.251976 0.251976 0.251976 0.251976 0.251976 0.251976 0.251976 0.260378 0.260378 0.260378 0.260378 0.260378 0.260378 0.260378 0.260378 0.260378 0.260378 0.244339 0.244339 0.244339 0.244339 0.244339 0.244339 0.244339 0.244339 0.244339 0.244339 0.244339 0.244339 0.244339 0.244339 0.244339 0.244339 0.244339 0.244339 0.244339 0.244339
