# Output from CTFFind version 4.1.9, run on 2019-11-03 19:02:38
# Input file: stack16_bm3d_averaged_1_2.75_0_50_half.mrc ; Number of micrographs: 1
# Pixel size: 3.000 Angstroms ; acceleration voltage: 300.0 keV ; spherical aberration: 0.00 mm ; amplitude contrast: 0.07
# Box size: 512 pixels ; min. res.: 30.0 Angstroms ; max. res.: 5.0 Angstroms ; min. def.: 5000.0 um; max. def. 50000.0 um; num. frames averaged: 1
# 6 lines per micrograph: #1 - spatial frequency (1/Angstroms); #2 - 1D rotational average of spectrum (assuming no astigmatism); #3 - 1D rotational average of spectrum; #4 - CTF fit; #5 - cross-correlation between spectrum and CTF fit; #6 - 2sigma of expected cross correlation of noise
0.000000 0.000651 0.001302 0.001953 0.002604 0.003255 0.003906 0.004557 0.005208 0.005859 0.006510 0.007161 0.007812 0.008464 0.009115 0.009766 0.010417 0.011068 0.011719 0.012370 0.013021 0.013672 0.014323 0.014974 0.015625 0.016276 0.016927 0.017578 0.018229 0.018880 0.019531 0.020182 0.020833 0.021484 0.022135 0.022786 0.023438 0.024089 0.024740 0.025391 0.026042 0.026693 0.027344 0.027995 0.028646 0.029297 0.029948 0.030599 0.031250 0.031901 0.032552 0.033203 0.033854 0.034505 0.035156 0.035807 0.036458 0.037109 0.037760 0.038411 0.039062 0.039714 0.040365 0.041016 0.041667 0.042318 0.042969 0.043620 0.044271 0.044922 0.045573 0.046224 0.046875 0.047526 0.048177 0.048828 0.049479 0.050130 0.050781 0.051432 0.052083 0.052734 0.053385 0.054036 0.054688 0.055339 0.055990 0.056641 0.057292 0.057943 0.058594 0.059245 0.059896 0.060547 0.061198 0.061849 0.062500 0.063151 0.063802 0.064453 0.065104 0.065755 0.066406 0.067057 0.067708 0.068359 0.069010 0.069661 0.070312 0.070964 0.071615 0.072266 0.072917 0.073568 0.074219 0.074870 0.075521 0.076172 0.076823 0.077474 0.078125 0.078776 0.079427 0.080078 0.080729 0.081380 0.082031 0.082682 0.083333 0.083984 0.084635 0.085286 0.085938 0.086589 0.087240 0.087891 0.088542 0.089193 0.089844 0.090495 0.091146 0.091797 0.092448 0.093099 0.093750 0.094401 0.095052 0.095703 0.096354 0.097005 0.097656 0.098307 0.098958 0.099609 0.100260 0.100911 0.101562 0.102214 0.102865 0.103516 0.104167 0.104818 0.105469 0.106120 0.106771 0.107422 0.108073 0.108724 0.109375 0.110026 0.110677 0.111328 0.111979 0.112630 0.113281 0.113932 0.114583 0.115234 0.115885 0.116536 0.117188 0.117839 0.118490 0.119141 0.119792 0.120443 0.121094 0.121745 0.122396 0.123047 0.123698 0.124349 0.125000 0.125651 0.126302 0.126953 0.127604 0.128255 0.128906 0.129557 0.130208 0.130859 0.131510 0.132161 0.132812 0.133464 0.134115 0.134766 0.135417 0.136068 0.136719 0.137370 0.138021 0.138672 0.139323 0.139974 0.140625 0.141276 0.141927 0.142578 0.143229 0.143880 0.144531 0.145182 0.145833 0.146484 0.147135 0.147786 0.148438 0.149089 0.149740 0.150391 0.151042 0.151693 0.152344 0.152995 0.153646 0.154297 0.154948 0.155599 0.156250 0.156901 0.157552 0.158203 0.158854 0.159505 0.160156 0.160807 0.161458 0.162109 0.162760 0.163411 0.164062 0.164714 0.165365 0.166016 0.166667 0.167318 0.167969 0.168620 0.169271 0.169922 0.170573 0.171224 0.171875 0.172526 0.173177 0.173828 0.174479 0.175130 0.175781 0.176432 0.177083 0.177734 0.178385 0.179036 0.179688 0.180339 0.180990 0.181641 0.182292 0.182943 0.183594 0.184245 0.184896 0.185547 0.186198 0.186849 0.187500 0.188151 0.188802 0.189453 0.190104 0.190755 0.191406 0.192057 0.192708 0.193359 0.194010 0.194661 0.195312 0.195964 0.196615 0.197266 0.197917 0.198568 0.199219 0.199870 0.200521 0.201172 0.201823 0.202474 0.203125 0.203776 0.204427 0.205078 0.205729 0.206380 0.207031 0.207682 0.208333 0.208984 0.209635 0.210286 0.210938 0.211589 0.212240 0.212891 0.213542 0.214193 0.214844 0.215495 0.216146 0.216797 0.217448 0.218099 0.218750 0.219401 0.220052 0.220703 0.221354 0.222005 0.222656 0.223307 0.223958 0.224609 0.225260 0.225911 0.226562 0.227214 0.227865 0.228516 0.229167 0.229818 0.230469 0.231120 0.231771 0.232422 0.233073 0.233724 0.234375 0.235026 0.235677
       0.33418        0.33418        0.33418        0.33418        0.33418        0.33418        0.33418        0.33418        0.33418        0.33418        0.33418        0.33418        0.33418        0.33418        0.33418        0.33418        0.33418        0.33418        0.33418        0.33418        0.33418        0.33418        0.33418        0.33418        0.33418        0.33418        0.33418        0.33418        0.33418        0.33418        0.33418        0.33418        0.33418        0.33418        0.33418        0.33418        0.33418        0.33418        0.33418        0.33418        0.33418        0.33418        0.33418        0.33418        0.33418        0.33418        0.33418        0.33418        0.33418        0.33418        0.33418        0.45207        0.62277        0.41216       -0.17013       -0.43581       -0.58007       -0.67498       -0.73912       -0.75909       -0.87894       -0.93206       -0.74505       -0.92036       -0.87841       -1.02257       -1.09237       -0.97182       -0.93605       -0.86091       -0.79153       -0.71396       -0.61814       -0.49513       -0.43182       -0.22716       -0.09735       -0.01037        0.18790        0.21383        0.28841        0.36133        0.39546        0.48528        0.55004        0.57262        0.54444        0.48796        0.52749        0.49248        0.42657        0.33016        0.18736        0.17588        0.09112       -0.02611       -0.08457       -0.05748        0.03656       -0.01071        0.04247        0.02452        0.16823        0.19808        0.38751        0.44966        0.55232        0.67416        0.74231        0.73202        0.65317        0.60855        0.54303        0.46629        0.36677        0.27172        0.19347        0.19099        0.09025        0.04295        0.02705        0.04374        0.08287        0.28486        0.38115        0.49351        0.53713        0.57578        0.64976        0.61287        0.61467        0.60178        0.57394        0.48271        0.29273        0.25680        0.21342        0.11999        0.06119        0.12226        0.14620        0.27230        0.32888        0.41145        0.47225        0.54653        0.61914        0.56989        0.50200        0.49060        0.37402        0.23211        0.23851        0.16921        0.14942        0.18357        0.24829        0.24730        0.32713        0.42743        0.43638        0.49315        0.47049        0.45789        0.47182        0.36489        0.31388        0.25705        0.22526        0.20610        0.20116        0.22884        0.31928        0.41320        0.40898        0.47710        0.54481        0.45949        0.41163        0.36024        0.31857        0.23645        0.24218        0.25071        0.26764        0.31574        0.33051        0.41027        0.48836        0.45451        0.45011        0.35064        0.36097        0.34533        0.22676        0.23902        0.24178        0.28149        0.34757        0.35825        0.39285        0.43717        0.42610        0.37894        0.34987        0.30898        0.32950        0.28868        0.26602        0.26005        0.30862        0.38017        0.38875        0.39655        0.37870        0.40283        0.37597        0.29696        0.26842        0.29244        0.32807        0.36797        0.36180        0.40473        0.33670        0.37392        0.36984        0.32660        0.33647        0.28234        0.28328        0.33481        0.31499        0.32895        0.34267        0.35648        0.31251        0.33417        0.28836        0.30881        0.27404        0.28852        0.29352        0.34227        0.38421        0.36618        0.34542        0.28912        0.27335        0.27435        0.31033        0.28834        0.31012        0.34755        0.36061        0.32366        0.29264        0.30488        0.29693        0.28606        0.29471        0.28814        0.32324        0.34350        0.32657        0.27566        0.32390        0.30759        0.28626        0.33435        0.32849        0.31205        0.33966        0.29921        0.31705        0.27100        0.30409        0.29576        0.31742        0.37953        0.32786        0.36444        0.31020        0.29762        0.29953        0.30914        0.29771        0.29746        0.31235        0.32036        0.31855        0.30547        0.30083        0.28943        0.29793        0.29634        0.33097        0.31038        0.32754        0.34174        0.28531        0.28179        0.27322        0.24730        0.32984        0.32982        0.33210        0.27885        0.25784        0.28586        0.34045        0.33163        0.28162        0.28236        0.31358        0.29263        0.23508        0.28637        0.26269        0.28526        0.33489        0.30114        0.35678        0.36487        0.29054        0.25004        0.25709        0.25328        0.26680        0.27586        0.32068        0.27587        0.21290        0.29249        0.31056        0.27798        0.24825        0.32002        0.28322        0.26716        0.25940        0.24447        0.27967        0.24150        0.24183        0.29859        0.34269        0.25905        0.26021        0.20872        0.23690        0.23517        0.28781        0.23012        0.19755        0.13652        0.24437        0.31822        0.22741       -0.00855        0.17763       -0.41340       -0.81447
3.052709 3.014272 2.976085 2.938147 2.900458 2.863019 2.825829 2.788888 2.752197 2.715754 2.679561 2.643618 2.607924 2.572478 2.537283 2.502336 2.467639 2.433191 2.398993 2.365043 2.331343 2.297893 2.264691 2.231739 2.199036 2.166583 2.134379 2.102424 2.070718 2.039262 2.008054 1.977097 1.946388 1.915929 1.885719 1.855758 1.826047 1.796585 1.767372 1.738409 1.709695 1.681230 1.653014 1.625048 1.597331 1.569863 1.542645 1.515676 1.488956 1.462485 1.436264 1.496188 1.604197 1.569035 0.889734 0.634735 0.446449 0.384239 0.308892 0.229615 0.175687 -0.033266 0.188971 0.054628 -0.050118 -0.085612 -0.242780 -0.171215 -0.087321 -0.099129 -0.078060 0.011376 0.027436 0.215468 0.122446 0.333241 0.438027 0.475793 0.679435 0.664796 0.669049 0.806024 0.778347 0.792459 0.909495 0.850041 0.885620 0.724031 0.808838 0.814880 0.657555 0.589916 0.436996 0.421613 0.341185 0.203041 0.145866 0.094737 0.225994 0.123082 0.213337 0.094349 0.255014 0.257636 0.428566 0.394883 0.580838 0.606626 0.687117 0.741591 0.630839 0.583631 0.458093 0.450748 0.289162 0.280986 0.108200 0.163354 0.012274 -0.002116 -0.046864 -0.062452 -0.035310 0.044832 0.252453 0.289848 0.366145 0.319047 0.424268 0.463093 0.436518 0.433859 0.358146 0.373420 0.141078 0.095395 0.070159 -0.019197 -0.133937 -0.036670 -0.084528 0.036775 0.093528 0.159398 0.243599 0.240556 0.341538 0.446600 0.329100 0.362889 0.289729 0.147595 0.069100 0.074617 0.030988 0.037077 0.080503 0.110444 0.110244 0.241841 0.248747 0.284135 0.321545 0.243380 0.264702 0.232324 0.107835 0.078150 0.039027 0.036144 -0.000347 0.012660 0.047668 0.165869 0.182957 0.177843 0.315699 0.204249 0.225170 0.102201 0.106473 0.013502 -0.014263 0.008521 0.002982 0.043562 0.059196 0.088333 0.182009 0.183844 0.207848 0.114393 0.080901 0.097291 0.033520 -0.061496 -0.012736 0.020135 0.035864 0.055483 0.091126 0.161286 0.119683 0.163284 0.061408 0.069217 0.042025 0.060935 0.011134 -0.002352 -0.000667 0.051832 0.115359 0.119859 0.094665 0.121168 0.117913 0.069898 0.002296 0.004875 0.020963 0.081539 0.081125 0.108106 0.111950 0.053410 0.105131 0.063594 0.048278 0.059553 -0.032403 0.035919 0.063202 0.028441 0.049618 0.106275 0.033074 0.056282 0.026605 0.019320 0.031794 -0.027182 0.018186 0.015169 0.056691 0.110173 0.075444 0.035840 -0.004855 -0.018761 -0.010620 0.026415 0.002861 0.021764 0.057968 0.059462 -0.010878 0.007708 -0.008446 -0.000556 -0.011244 -0.021150 -0.008066 0.034414 0.014597 0.014180 -0.018473 0.007961 -0.007156 -0.004616 0.030716 0.016073 0.030675 -0.021310 0.009909 -0.007330 -0.058375 0.009116 -0.016525 0.027810 0.072454 0.010965 0.040772 -0.002432 -0.000343 -0.019288 0.015849 -0.001966 0.002230 0.008903 0.021354 0.015372 0.008216 0.024077 -0.029038 0.007319 -0.006811 0.034062 0.025928 0.051191 0.034833 0.005265 0.013284 -0.026874 -0.011186 0.037506 0.058096 0.033045 -0.002974 -0.026998 -0.001459 0.061913 0.036404 0.017756 -0.011907 0.025953 -0.012590 -0.032637 -0.008894 -0.007783 0.001605 0.056273 0.034618 0.097114 0.071513 0.031777 -0.011946 -0.012159 -0.009796 0.010008 -0.009172 0.068283 -0.028627 -0.065838 0.039233 0.037149 -0.102292 -0.045896 0.009813 -0.029244 -0.062692 -0.042194 -0.041207 -0.010239 -0.050656 -0.043160 0.034842 0.080264 -0.039959 0.033060 0.067500 0.032493 0.017945 0.146744 0.112733 0.145059 0.076994 0.211298 0.277253 0.221574 -0.161267 0.163105 -0.726532
0.072396 0.073047 0.075001 0.078256 0.082812 0.088668 0.095820 0.104266 0.114002 0.125023 0.137322 0.150892 0.165721 0.181797 0.199105 0.217625 0.237336 0.258212 0.280222 0.303331 0.327496 0.352672 0.378803 0.405830 0.433684 0.462288 0.491556 0.521394 0.551697 0.582351 0.613230 0.644199 0.675110 0.705804 0.736111 0.765851 0.794828 0.822841 0.849674 0.875102 0.898891 0.920799 0.940575 0.957965 0.972709 0.984544 0.993207 0.998438 0.999981 0.997588 0.991019 0.980053 0.964480 0.944117 0.918803 0.888406 0.852830 0.812013 0.765939 0.714634 0.658178 0.596702 0.530397 0.459512 0.384362 0.305328 0.222854 0.137458 0.049722 0.039706 0.130111 0.220719 0.310699 0.399169 0.485206 0.567851 0.646123 0.719026 0.785567 0.844767 0.895679 0.937399 0.969091 0.990001 0.999472 0.996970 0.982093 0.954596 0.914403 0.861620 0.796551 0.719706 0.631807 0.533794 0.426820 0.312249 0.191646 0.066765 0.060481 0.188029 0.313711 0.435279 0.550450 0.656949 0.752554 0.835150 0.902778 0.953689 0.986396 0.999725 0.992861 0.965387 0.917324 0.849156 0.761846 0.656844 0.536081 0.401947 0.257265 0.105239 0.050607 0.206501 0.358511 0.502642 0.634947 0.751632 0.849180 0.924467 0.974872 0.998385 0.993702 0.960301 0.898502 0.809503 0.695387 0.559105 0.404423 0.235841 0.058480 0.122057 0.299859 0.468889 0.623199 0.757142 0.865593 0.944163 0.989400 0.998961 0.971759 0.908065 0.809558 0.679331 0.521832 0.342745 0.148818 0.052375 0.252707 0.443823 0.617491 0.765968 0.882357 0.960961 0.997591 0.989823 0.937189 0.841281 0.705772 0.536318 0.340380 0.126923 0.093956 0.311492 0.514767 0.693268 0.837449 0.939268 0.992675 0.994022 0.942353 0.839564 0.690412 0.502365 0.285281 0.050939 0.187566 0.416539 0.622468 0.792840 0.916932 0.986533 0.996543 0.945403 0.835332 0.672320 0.465886 0.228585 0.024689 0.277618 0.513486 0.716293 0.871874 0.968928 0.999913 0.961695 0.855935 0.689130 0.472313 0.220406 0.048738 0.315564 0.560219 0.764043 0.911027 0.989140 0.991391 0.916545 0.769411 0.560656 0.306134 0.025774 0.257934 0.521705 0.743388 0.903856 0.988739 0.989797 0.905827 0.742992 0.514498 0.239654 0.057679 0.351092 0.613959 0.821881 0.954995 0.999987 0.951521 0.812999 0.596485 0.321813 0.014865 0.294776 0.576642 0.802402 0.948767 0.999998 0.949726 0.801884 0.570582 0.278933 0.043144 0.361897 0.643262 0.856530 0.977775 0.992671 0.898341 0.703990 0.430200 0.106917 0.229706 0.541297 0.791640 0.950954 0.999561 0.930487 0.750624 0.480272 0.151039 0.197720 0.523529 0.785962 0.951730 0.999037 0.920639 0.725134 0.436256 0.090212 0.268729 0.593807 0.841902 0.979330 0.986590 0.861341 0.619154 0.291808 0.076660 0.435772 0.735468 0.933169 0.999946 0.924988 0.717576 0.406225 0.035012 0.342509 0.670958 0.901282 0.998227 0.945952 0.750873 0.441203 0.063151 0.325807 0.665545 0.902651 0.998945 0.937874 0.727634 0.400422 0.007783 0.387317 0.720505 0.936545 0.998686 0.895167 0.641746 0.279656 0.130831 0.520265 0.821714 0.982414 0.973197 0.794130 0.475117 0.071246 0.346446 0.703407 0.934867 0.997817 0.879299 0.599409 0.208296 0.222516 0.613065 0.889745 0.999357 0.919657 0.664213 0.280553 0.158335 0.567679 0.867262 0.997276 0.930593 0.678797 0.290656 0.156950 0.574038 0.875540 0.998857 0.917147 0.645607 0.239120 0.218420 0.631248 0.911712 0.999109 0.873187 0.559280 0.123702 0.339874 0.730388
1.000000 1.000000 1.000000 1.000000 1.000000 1.000000 1.000000 1.000000 1.000000 1.000000 1.000000 1.000000 1.000000 1.000000 1.000000 1.000000 1.000000 1.000000 1.000000 1.000000 1.000000 1.000000 1.000000 1.000000 1.000000 1.000000 1.000000 1.000000 1.000000 1.000000 1.000000 1.000000 1.000000 1.000000 1.000000 1.000000 1.000000 1.000000 1.000000 1.000000 1.000000 1.000000 1.000000 1.000000 1.000000 1.000000 1.000000 1.000000 1.000000 1.000000 1.000000 1.000000 0.937581 0.937581 0.937581 0.937581 0.937581 0.937581 0.937581 0.937581 0.937581 0.937581 0.937581 0.937581 0.937581 0.937581 0.937581 0.937581 0.937581 0.937581 0.937581 0.937581 0.937581 0.937581 0.937581 0.937581 0.937581 0.937581 0.937581 0.937581 0.937581 0.937581 0.937581 0.937581 0.937581 0.923633 0.925101 0.927772 0.928691 0.928607 0.928179 0.927932 0.928223 0.929618 0.931366 0.947605 0.949901 0.950505 0.951629 0.950394 0.952687 0.950874 0.955438 0.966057 0.965347 0.966339 0.960733 0.961616 0.961239 0.960670 0.960909 0.960650 0.959311 0.957702 0.956361 0.956706 0.956477 0.958070 0.958458 0.958413 0.958821 0.958802 0.959522 0.957890 0.955659 0.955940 0.955316 0.954085 0.959433 0.959291 0.966322 0.966319 0.967006 0.967799 0.968008 0.968176 0.964456 0.963860 0.962901 0.950431 0.943928 0.941994 0.945047 0.948810 0.946995 0.943309 0.942749 0.940430 0.932139 0.931594 0.924199 0.922981 0.907551 0.902996 0.896506 0.897040 0.898146 0.899251 0.896930 0.889130 0.878664 0.878049 0.881284 0.874961 0.871802 0.887038 0.881357 0.881925 0.885514 0.888641 0.893917 0.887634 0.883509 0.880529 0.875600 0.873378 0.875052 0.876074 0.877706 0.875135 0.867764 0.871648 0.861767 0.866781 0.871745 0.863269 0.857953 0.858450 0.858038 0.857406 0.854239 0.856087 0.847236 0.841306 0.842727 0.840609 0.839508 0.830721 0.831107 0.831739 0.835241 0.826571 0.828389 0.796991 0.806489 0.797555 0.805054 0.802510 0.803026 0.804508 0.784034 0.775112 0.771915 0.776564 0.784193 0.757766 0.755347 0.754671 0.745675 0.745865 0.753013 0.746257 0.734431 0.725428 0.734139 0.736564 0.741351 0.739491 0.723346 0.722371 0.732536 0.739840 0.704038 0.687936 0.682349 0.689393 0.687351 0.679044 0.685274 0.667145 0.661069 0.656123 0.652796 0.624640 0.627901 0.632666 0.598108 0.598969 0.594402 0.555579 0.552889 0.541286 0.544648 0.522291 0.553028 0.551740 0.529649 0.552847 0.547422 0.549048 0.561122 0.509447 0.516925 0.509015 0.534288 0.542993 0.543652 0.531386 0.541021 0.527111 0.531770 0.536265 0.526645 0.539974 0.533012 0.516089 0.529801 0.510376 0.497829 0.512282 0.520926 0.524332 0.537266 0.534255 0.535958 0.531263 0.476328 0.480637 0.505075 0.471780 0.493337 0.495607 0.518358 0.495682 0.496358 0.484819 0.508857 0.518276 0.487041 0.511111 0.489634 0.498984 0.499717 0.495557 0.477333 0.498512 0.512406 0.464515 0.490046 0.512067 0.493041 0.519850 0.455372 0.456394 0.421703 0.434555 0.414703 0.416266 0.387510 0.317446 0.305972 0.298610 0.293730 0.289607 0.288558 0.267302 0.239466 0.186849 0.182288 0.166866 0.190381 0.195754 0.155032 0.155612 0.155612 0.155612 0.155612 0.150802 0.150802 0.150802 0.150802 0.150802 0.150802 0.150802 0.150802 0.150802 0.150802 0.150802 0.150802 0.150802 0.150802 0.071616 0.071616 0.071616 0.071616 0.071616 0.071616 0.071616 0.071616 0.071616 0.071616 0.071616 0.071616
0.000000 0.000000 0.000000 0.000000 0.000000 0.000000 0.000000 0.000000 0.000000 0.000000 0.000000 0.000000 0.000000 0.000000 0.000000 0.000000 0.000000 0.000000 0.000000 0.000000 0.000000 0.000000 0.000000 0.000000 0.000000 0.000000 0.000000 0.000000 0.000000 0.000000 0.000000 0.000000 0.000000 0.000000 0.000000 0.000000 0.000000 0.000000 0.000000 0.000000 0.000000 0.000000 0.000000 0.000000 0.000000 0.000000 0.000000 0.000000 0.000000 0.000000 0.000000 0.000000 0.209657 0.209657 0.209657 0.209657 0.209657 0.209657 0.209657 0.209657 0.209657 0.209657 0.209657 0.209657 0.209657 0.209657 0.209657 0.209657 0.209657 0.209657 0.209657 0.209657 0.209657 0.209657 0.209657 0.209657 0.209657 0.209657 0.209657 0.209657 0.209657 0.209657 0.209657 0.209657 0.209657 0.244339 0.244339 0.244339 0.244339 0.244339 0.244339 0.244339 0.244339 0.244339 0.244339 0.244339 0.244339 0.244339 0.244339 0.244339 0.244339 0.244339 0.244339 0.244339 0.244339 0.244339 0.244339 0.244339 0.244339 0.244339 0.260378 0.260378 0.260378 0.260378 0.260378 0.260378 0.260378 0.260378 0.260378 0.260378 0.260378 0.260378 0.260378 0.260378 0.260378 0.260378 0.260378 0.260378 0.260378 0.260378 0.269680 0.269680 0.269680 0.269680 0.269680 0.269680 0.269680 0.269680 0.269680 0.269680 0.269680 0.269680 0.269680 0.269680 0.269680 0.269680 0.269680 0.269680 0.269680 0.269680 0.269680 0.269680 0.269680 0.269680 0.269680 0.269680 0.269680 0.269680 0.269680 0.269680 0.269680 0.269680 0.269680 0.280056 0.280056 0.280056 0.280056 0.280056 0.280056 0.280056 0.280056 0.280056 0.280056 0.280056 0.280056 0.280056 0.280056 0.280056 0.280056 0.280056 0.280056 0.280056 0.280056 0.280056 0.280056 0.280056 0.280056 0.280056 0.280056 0.280056 0.285714 0.285714 0.285714 0.285714 0.285714 0.285714 0.285714 0.285714 0.285714 0.285714 0.285714 0.285714 0.274721 0.274721 0.274721 0.274721 0.274721 0.274721 0.274721 0.274721 0.274721 0.274721 0.274721 0.274721 0.280056 0.280056 0.280056 0.280056 0.280056 0.280056 0.280056 0.280056 0.280056 0.280056 0.280056 0.285714 0.285714 0.285714 0.285714 0.285714 0.285714 0.285714 0.285714 0.285714 0.285714 0.269680 0.269680 0.269680 0.269680 0.269680 0.269680 0.269680 0.269680 0.269680 0.269680 0.269680 0.285714 0.285714 0.285714 0.285714 0.285714 0.285714 0.285714 0.285714 0.285714 0.280056 0.280056 0.280056 0.280056 0.280056 0.280056 0.280056 0.280056 0.280056 0.274721 0.274721 0.274721 0.274721 0.274721 0.274721 0.274721 0.274721 0.274721 0.269680 0.269680 0.269680 0.269680 0.269680 0.269680 0.269680 0.269680 0.269680 0.280056 0.280056 0.280056 0.280056 0.280056 0.280056 0.280056 0.280056 0.260378 0.260378 0.260378 0.260378 0.260378 0.260378 0.260378 0.260378 0.260378 0.269680 0.269680 0.269680 0.269680 0.269680 0.269680 0.269680 0.269680 0.285714 0.285714 0.285714 0.285714 0.285714 0.285714 0.285714 0.264906 0.264906 0.264906 0.264906 0.264906 0.264906 0.264906 0.264906 0.274721 0.274721 0.274721 0.274721 0.274721 0.274721 0.274721 0.256074 0.256074 0.256074 0.256074 0.256074 0.256074 0.256074 0.256074 0.264906 0.264906 0.264906 0.264906 0.264906 0.264906 0.264906 0.264906 0.264906 0.264906 0.264906 0.264906 0.264906 0.264906 0.280056 0.280056 0.280056 0.280056 0.280056 0.280056 0.280056 0.280056 0.280056 0.280056 0.280056 0.280056
