# Output from CTFFind version 4.1.9, run on 2019-11-03 19:02:17
# Input file: stack16_bm3d_averaged_1_3.25_0_1500_half.mrc ; Number of micrographs: 1
# Pixel size: 3.000 Angstroms ; acceleration voltage: 300.0 keV ; spherical aberration: 0.00 mm ; amplitude contrast: 0.07
# Box size: 512 pixels ; min. res.: 30.0 Angstroms ; max. res.: 5.0 Angstroms ; min. def.: 5000.0 um; max. def. 50000.0 um; num. frames averaged: 1
# 6 lines per micrograph: #1 - spatial frequency (1/Angstroms); #2 - 1D rotational average of spectrum (assuming no astigmatism); #3 - 1D rotational average of spectrum; #4 - CTF fit; #5 - cross-correlation between spectrum and CTF fit; #6 - 2sigma of expected cross correlation of noise
0.000000 0.000651 0.001302 0.001953 0.002604 0.003255 0.003906 0.004557 0.005208 0.005859 0.006510 0.007161 0.007812 0.008464 0.009115 0.009766 0.010417 0.011068 0.011719 0.012370 0.013021 0.013672 0.014323 0.014974 0.015625 0.016276 0.016927 0.017578 0.018229 0.018880 0.019531 0.020182 0.020833 0.021484 0.022135 0.022786 0.023438 0.024089 0.024740 0.025391 0.026042 0.026693 0.027344 0.027995 0.028646 0.029297 0.029948 0.030599 0.031250 0.031901 0.032552 0.033203 0.033854 0.034505 0.035156 0.035807 0.036458 0.037109 0.037760 0.038411 0.039062 0.039714 0.040365 0.041016 0.041667 0.042318 0.042969 0.043620 0.044271 0.044922 0.045573 0.046224 0.046875 0.047526 0.048177 0.048828 0.049479 0.050130 0.050781 0.051432 0.052083 0.052734 0.053385 0.054036 0.054688 0.055339 0.055990 0.056641 0.057292 0.057943 0.058594 0.059245 0.059896 0.060547 0.061198 0.061849 0.062500 0.063151 0.063802 0.064453 0.065104 0.065755 0.066406 0.067057 0.067708 0.068359 0.069010 0.069661 0.070312 0.070964 0.071615 0.072266 0.072917 0.073568 0.074219 0.074870 0.075521 0.076172 0.076823 0.077474 0.078125 0.078776 0.079427 0.080078 0.080729 0.081380 0.082031 0.082682 0.083333 0.083984 0.084635 0.085286 0.085938 0.086589 0.087240 0.087891 0.088542 0.089193 0.089844 0.090495 0.091146 0.091797 0.092448 0.093099 0.093750 0.094401 0.095052 0.095703 0.096354 0.097005 0.097656 0.098307 0.098958 0.099609 0.100260 0.100911 0.101562 0.102214 0.102865 0.103516 0.104167 0.104818 0.105469 0.106120 0.106771 0.107422 0.108073 0.108724 0.109375 0.110026 0.110677 0.111328 0.111979 0.112630 0.113281 0.113932 0.114583 0.115234 0.115885 0.116536 0.117188 0.117839 0.118490 0.119141 0.119792 0.120443 0.121094 0.121745 0.122396 0.123047 0.123698 0.124349 0.125000 0.125651 0.126302 0.126953 0.127604 0.128255 0.128906 0.129557 0.130208 0.130859 0.131510 0.132161 0.132812 0.133464 0.134115 0.134766 0.135417 0.136068 0.136719 0.137370 0.138021 0.138672 0.139323 0.139974 0.140625 0.141276 0.141927 0.142578 0.143229 0.143880 0.144531 0.145182 0.145833 0.146484 0.147135 0.147786 0.148438 0.149089 0.149740 0.150391 0.151042 0.151693 0.152344 0.152995 0.153646 0.154297 0.154948 0.155599 0.156250 0.156901 0.157552 0.158203 0.158854 0.159505 0.160156 0.160807 0.161458 0.162109 0.162760 0.163411 0.164062 0.164714 0.165365 0.166016 0.166667 0.167318 0.167969 0.168620 0.169271 0.169922 0.170573 0.171224 0.171875 0.172526 0.173177 0.173828 0.174479 0.175130 0.175781 0.176432 0.177083 0.177734 0.178385 0.179036 0.179688 0.180339 0.180990 0.181641 0.182292 0.182943 0.183594 0.184245 0.184896 0.185547 0.186198 0.186849 0.187500 0.188151 0.188802 0.189453 0.190104 0.190755 0.191406 0.192057 0.192708 0.193359 0.194010 0.194661 0.195312 0.195964 0.196615 0.197266 0.197917 0.198568 0.199219 0.199870 0.200521 0.201172 0.201823 0.202474 0.203125 0.203776 0.204427 0.205078 0.205729 0.206380 0.207031 0.207682 0.208333 0.208984 0.209635 0.210286 0.210938 0.211589 0.212240 0.212891 0.213542 0.214193 0.214844 0.215495 0.216146 0.216797 0.217448 0.218099 0.218750 0.219401 0.220052 0.220703 0.221354 0.222005 0.222656 0.223307 0.223958 0.224609 0.225260 0.225911 0.226562 0.227214 0.227865 0.228516 0.229167 0.229818 0.230469 0.231120 0.231771 0.232422 0.233073 0.233724 0.234375 0.235026 0.235677
       0.33410        0.33410        0.33410        0.33410        0.33410        0.33410        0.33410        0.33410        0.33410        0.33410        0.33410        0.33410        0.33410        0.33410        0.33410        0.33410        0.33410        0.33410        0.33410        0.33410        0.33410        0.33410        0.33410        0.33410        0.33410        0.33410        0.33410        0.33410        0.33410        0.33410        0.33410        0.33410        0.33410        0.33410        0.33410        0.33410        0.33410        0.33410        0.33410        0.33410        0.33410        0.33410        0.33410        0.33410        0.33410        0.33410        0.33410        0.33410        0.33410        0.33410        0.33410        0.43597        0.60067        0.39001       -0.15009       -0.44338       -0.56921       -0.66099       -0.73607       -0.76086       -0.89037       -0.92909       -0.73883       -0.91643       -0.86869       -1.01484       -1.06623       -0.95339       -0.91206       -0.83798       -0.78426       -0.68962       -0.60464       -0.50975       -0.43000       -0.22392       -0.10299       -0.01482        0.20872        0.22773        0.30459        0.36818        0.39796        0.48980        0.55855        0.58707        0.56086        0.49165        0.53510        0.49286        0.40985        0.31734        0.17976        0.17407        0.11316       -0.05847       -0.07797       -0.06606        0.02108       -0.01381        0.02678        0.02768        0.14942        0.19204        0.40108        0.46720        0.56773        0.67652        0.74741        0.72453        0.67021        0.64316        0.54924        0.46013        0.37516        0.27036        0.19996        0.18257        0.07495        0.02281        0.00476        0.03734        0.08000        0.27569        0.40560        0.50225        0.55762        0.59910        0.66871        0.63211        0.64371        0.62285        0.57852        0.47471        0.27553        0.25005        0.19974        0.11366        0.05491        0.09552        0.11746        0.26011        0.34650        0.40983        0.47852        0.54246        0.63298        0.58198        0.52119        0.50033        0.37059        0.20806        0.21056        0.15375        0.12057        0.15691        0.21916        0.25817        0.33189        0.42480        0.42807        0.52114        0.46732        0.45818        0.46212        0.37808        0.31810        0.26766        0.20809        0.20287        0.21598        0.22108        0.30508        0.42857        0.44765        0.48334        0.53697        0.47525        0.43418        0.36986        0.29724        0.23818        0.22228        0.24306        0.25991        0.28587        0.32334        0.42372        0.47751        0.46741        0.45521        0.36604        0.36569        0.35415        0.21617        0.23311        0.26087        0.29016        0.34704        0.35921        0.40550        0.43281        0.43244        0.37536        0.35365        0.30622        0.32367        0.27315        0.26055        0.27933        0.32790        0.38503        0.39869        0.39673        0.37177        0.39942        0.35793        0.28941        0.28506        0.28292        0.31085        0.36142        0.34396        0.41386        0.34649        0.37359        0.37118        0.32347        0.31392        0.27062        0.29136        0.33246        0.32769        0.32707        0.33488        0.36358        0.32639        0.35486        0.29295        0.30750        0.26235        0.27921        0.28836        0.34205        0.38265        0.36086        0.34213        0.29750        0.26216        0.26290        0.29158        0.27007        0.31445        0.35889        0.37063        0.33379        0.30562        0.28736        0.29599        0.29791        0.28730        0.29573        0.33926        0.33814        0.31238        0.28671        0.33521        0.30246        0.29045        0.31163        0.30932        0.31336        0.34241        0.31077        0.31476        0.27666        0.29746        0.29988        0.32138        0.40031        0.32444        0.35803        0.30282        0.29903        0.29562        0.31316        0.29484        0.28413        0.28968        0.32764        0.33593        0.29973        0.30226        0.28820        0.29658        0.30041        0.31991        0.31558        0.34198        0.34991        0.30451        0.29473        0.28948        0.24400        0.31507        0.33121        0.30622        0.28837        0.26348        0.28450        0.32335        0.32927        0.29545        0.29694        0.31064        0.30356        0.22683        0.28921        0.29862        0.27940        0.32009        0.28841        0.34380        0.37719        0.28374        0.25952        0.24368        0.26949        0.28162        0.27811        0.27714        0.24964        0.25433        0.29824        0.30844        0.28618        0.24234        0.34442        0.31488        0.27655        0.23946        0.20687        0.24230        0.22415        0.23400        0.28760        0.35080        0.26347        0.23397        0.25910        0.25012        0.18979        0.29698        0.24303        0.20015        0.15409        0.24746        0.32087        0.26815        0.03876        0.14018       -0.38102       -0.66355
2.914924 2.878988 2.843282 2.807807 2.772561 2.737545 2.702759 2.668203 2.633877 2.599780 2.565914 2.532277 2.498870 2.465694 2.432747 2.400030 2.367542 2.335285 2.303258 2.271460 2.239893 2.208555 2.177447 2.146569 2.115921 2.085503 2.055315 2.025356 1.995628 1.966129 1.936860 1.907822 1.879013 1.850434 1.822084 1.793965 1.766076 1.738416 1.710987 1.683787 1.656817 1.630077 1.603567 1.577287 1.551237 1.525416 1.499826 1.474465 1.449334 1.424433 1.399762 1.439694 1.563743 1.510064 0.879146 0.587200 0.421811 0.360114 0.275037 0.193798 0.125919 -0.063901 0.164953 0.023617 -0.065506 -0.117782 -0.249944 -0.176230 -0.098113 -0.095388 -0.101827 0.019380 0.022358 0.193225 0.104897 0.323441 0.437379 0.451299 0.703291 0.675819 0.672030 0.817830 0.789250 0.805327 0.920255 0.868006 0.911902 0.734409 0.824731 0.839930 0.643808 0.584197 0.451549 0.414486 0.391113 0.176555 0.150433 0.115008 0.217828 0.132790 0.209736 0.102427 0.270435 0.252479 0.471049 0.425571 0.614703 0.635466 0.730938 0.743669 0.657890 0.645151 0.501402 0.454170 0.325968 0.306413 0.133432 0.188427 0.011256 -0.001156 -0.045477 -0.049710 -0.009436 0.051013 0.288329 0.341005 0.406946 0.359783 0.477629 0.493821 0.496013 0.473631 0.394074 0.396934 0.145856 0.118131 0.068390 0.015924 -0.134779 -0.025348 -0.095075 0.032504 0.149403 0.173885 0.279385 0.251739 0.375816 0.475256 0.358381 0.402487 0.311412 0.146329 0.050728 0.076134 0.026758 0.026387 0.066440 0.112859 0.133073 0.256687 0.259121 0.294837 0.358669 0.245580 0.268422 0.233672 0.129573 0.093114 0.039357 0.019587 0.025040 0.008932 0.042731 0.173531 0.210035 0.214773 0.307887 0.224168 0.245841 0.122398 0.106599 -0.007784 -0.011956 -0.009111 0.009378 0.029304 0.020774 0.103681 0.184584 0.183653 0.218646 0.134554 0.088471 0.102445 0.037391 -0.078389 -0.000636 0.026460 0.037367 0.049880 0.109794 0.154411 0.131535 0.164996 0.064504 0.064808 0.037861 0.057547 -0.005858 0.007951 0.016850 0.071248 0.111079 0.132639 0.080872 0.117815 0.109775 0.036361 -0.000973 0.012688 0.000273 0.057392 0.070108 0.080706 0.110434 0.069215 0.094850 0.061321 0.042171 0.025506 -0.020195 0.027709 0.059008 0.039184 0.050857 0.019317 0.068021 0.064286 0.037431 0.010035 0.018253 -0.043199 -0.004830 0.008827 0.052213 0.102901 0.071462 0.043129 -0.007874 -0.028891 -0.012404 -0.000294 -0.006590 0.033481 0.069167 0.069031 0.007379 0.022607 -0.026499 0.012255 -0.000258 -0.024087 0.012570 0.048399 -0.010500 0.009087 -0.012337 0.028096 -0.018795 -0.002759 0.002775 0.010551 0.028614 -0.006623 0.014573 -0.005604 -0.053546 0.008958 -0.010351 0.033451 0.093794 0.004449 0.042761 -0.006133 0.002316 -0.029093 0.026516 -0.006191 -0.016019 -0.023535 0.020240 0.029002 0.007155 0.014840 -0.041168 0.002908 -0.011438 0.018071 0.033757 0.048605 0.035962 0.028108 0.019971 -0.020806 -0.029118 0.012165 0.058664 0.007903 0.008937 -0.030984 -0.003445 0.031149 0.043291 0.017851 0.010275 0.018366 0.007827 -0.057630 -0.003342 0.034405 -0.010418 0.031006 0.030004 0.084211 0.096809 0.025866 0.010250 -0.025376 -0.004313 0.063566 -0.039187 0.017439 -0.023524 -0.035612 0.031939 0.038396 -0.019792 -0.061132 0.050388 -0.005824 -0.050515 -0.071128 -0.077633 -0.038364 -0.069532 -0.065355 -0.000576 0.088013 -0.034349 -0.032625 0.066292 0.029400 -0.062711 0.114278 0.090236 0.126328 0.050954 0.211391 0.299418 0.214869 -0.085433 0.131497 -0.599114
0.072396 0.073047 0.075000 0.078255 0.082810 0.088663 0.095814 0.104258 0.113992 0.125010 0.137306 0.150873 0.165698 0.181770 0.199074 0.217590 0.237296 0.258167 0.280172 0.303275 0.327435 0.352605 0.378731 0.405752 0.433600 0.462198 0.491461 0.521293 0.551592 0.582241 0.613116 0.644080 0.674988 0.705679 0.735985 0.765723 0.794701 0.822715 0.849551 0.874983 0.898777 0.920693 0.940479 0.957880 0.972636 0.984486 0.993167 0.998418 0.999983 0.997615 0.991073 0.980136 0.964595 0.944266 0.918988 0.888630 0.853094 0.812319 0.766288 0.715028 0.658616 0.597185 0.530923 0.460082 0.384973 0.305977 0.223541 0.138177 0.050468 0.038937 0.129326 0.219924 0.309903 0.398379 0.484432 0.567103 0.645410 0.718360 0.784959 0.844227 0.895218 0.937029 0.968823 0.989843 0.999435 0.997060 0.982318 0.954960 0.914908 0.862268 0.797341 0.720634 0.632866 0.534975 0.428110 0.313634 0.193108 0.068281 0.058932 0.186474 0.312176 0.433795 0.549046 0.655656 0.751403 0.834169 0.901996 0.953131 0.986085 0.999679 0.993092 0.965904 0.918129 0.850244 0.763205 0.658454 0.537914 0.403971 0.259438 0.107513 0.048284 0.204186 0.356265 0.500528 0.633026 0.749964 0.847823 0.923470 0.974279 0.998229 0.994004 0.961071 0.899734 0.811177 0.697469 0.561544 0.407154 0.238787 0.061551 0.118959 0.296837 0.466050 0.620648 0.754980 0.863911 0.943038 0.988894 0.999114 0.972589 0.909561 0.811686 0.682030 0.525013 0.346296 0.152605 0.048499 0.248901 0.440251 0.614314 0.763335 0.880403 0.959794 0.997288 0.990425 0.938695 0.843651 0.708919 0.540115 0.344662 0.131498 0.089309 0.306999 0.510664 0.689777 0.834767 0.937559 0.992058 0.994562 0.944053 0.842364 0.694189 0.506934 0.290405 0.056341 0.182192 0.411506 0.618084 0.789384 0.914639 0.985573 0.997010 0.947308 0.838592 0.676762 0.471256 0.234562 0.018484 0.271589 0.508040 0.711815 0.868691 0.967294 0.999978 0.963499 0.859393 0.694033 0.478344 0.227152 0.041757 0.308861 0.554304 0.759383 0.908009 0.988036 0.992332 0.919506 0.774203 0.566938 0.313433 0.033518 0.250372 0.514957 0.738039 0.900390 0.987493 0.990929 0.909292 0.748537 0.521679 0.247867 0.049147 0.343006 0.607074 0.816854 0.952335 0.999993 0.954249 0.818247 0.603805 0.330533 0.024167 0.285796 0.568887 0.796672 0.945684 0.999929 0.952742 0.807732 0.578712 0.288535 0.033054 0.352390 0.635374 0.851147 0.975537 0.993886 0.902943 0.711527 0.439883 0.117686 0.219064 0.532010 0.784816 0.947438 0.999831 0.934583 0.758127 0.490342 0.162499 0.186250 0.513459 0.778572 0.947994 0.999492 0.925306 0.733490 0.447296 0.102548 0.256682 0.583643 0.835001 0.976671 0.988605 0.867843 0.629331 0.304334 0.063478 0.423758 0.726325 0.928235 0.999995 0.930099 0.727099 0.418857 0.048961 0.329269 0.660397 0.895018 0.997271 0.950537 0.760395 0.454290 0.077846 0.311749 0.654330 0.896083 0.998136 0.943047 0.738062 0.414509 0.023303 0.372864 0.709510 0.930881 0.999376 0.902197 0.654032 0.295206 0.114620 0.506154 0.812176 0.979169 0.976912 0.804259 0.489965 0.088259 0.330293 0.691025 0.928556 0.998819 0.887538 0.613482 0.225678 0.205017 0.598729 0.881321 0.998537 0.926705 0.677895 0.298321 0.139868 0.552116 0.857699 0.995694 0.937418 0.692789 0.309106 0.137715 0.557911 0.865869 0.997717 0.924895 0.660759 0.258621 0.198624 0.615331 0.903109 0.999766 0.883091 0.576411 0.144447 0.319996 0.715765
1.000000 1.000000 1.000000 1.000000 1.000000 1.000000 1.000000 1.000000 1.000000 1.000000 1.000000 1.000000 1.000000 1.000000 1.000000 1.000000 1.000000 1.000000 1.000000 1.000000 1.000000 1.000000 1.000000 1.000000 1.000000 1.000000 1.000000 1.000000 1.000000 1.000000 1.000000 1.000000 1.000000 1.000000 1.000000 1.000000 1.000000 1.000000 1.000000 1.000000 1.000000 1.000000 1.000000 1.000000 1.000000 1.000000 1.000000 1.000000 1.000000 1.000000 1.000000 1.000000 0.931194 0.931194 0.931194 0.931194 0.931194 0.931194 0.931194 0.931194 0.931194 0.931194 0.931194 0.931194 0.931194 0.931194 0.931194 0.931194 0.931194 0.931194 0.931194 0.931194 0.931194 0.931194 0.931194 0.931194 0.931194 0.931194 0.931194 0.931194 0.931194 0.931194 0.931194 0.931194 0.931194 0.914533 0.916184 0.919187 0.920228 0.920128 0.919629 0.919325 0.919619 0.921121 0.923005 0.944422 0.946703 0.947855 0.948939 0.947699 0.950169 0.947887 0.952182 0.967171 0.966440 0.967363 0.961607 0.962541 0.962117 0.961517 0.962417 0.962208 0.960848 0.959235 0.957999 0.957672 0.957309 0.958911 0.959284 0.959532 0.959941 0.959905 0.959794 0.957310 0.955171 0.955388 0.954719 0.953524 0.958915 0.958772 0.966918 0.968061 0.968761 0.969518 0.969713 0.969873 0.962294 0.960081 0.957355 0.945315 0.937696 0.933787 0.936556 0.939662 0.936634 0.930835 0.929821 0.927782 0.921133 0.920698 0.917452 0.918326 0.908218 0.904078 0.893849 0.894587 0.897260 0.898019 0.895247 0.882477 0.875840 0.876167 0.879178 0.873570 0.870785 0.887284 0.884264 0.886470 0.890054 0.892519 0.898959 0.884295 0.877202 0.873647 0.868810 0.868076 0.870236 0.873401 0.875226 0.874499 0.867066 0.871613 0.862480 0.870347 0.875958 0.873997 0.873058 0.873322 0.872914 0.869641 0.865451 0.869635 0.866670 0.863609 0.860960 0.855752 0.857321 0.858578 0.858846 0.858365 0.859612 0.855475 0.859646 0.852495 0.856533 0.851281 0.854889 0.853553 0.858652 0.849591 0.842976 0.831368 0.822753 0.826601 0.830257 0.789958 0.787822 0.784860 0.782919 0.788254 0.794242 0.789994 0.791411 0.786347 0.792474 0.801284 0.794743 0.789829 0.790268 0.792235 0.772389 0.780897 0.780107 0.765759 0.769386 0.750613 0.748331 0.747062 0.749635 0.696094 0.688162 0.661800 0.646971 0.662294 0.657470 0.646656 0.634206 0.631516 0.625374 0.589197 0.578858 0.564971 0.566705 0.553431 0.556668 0.557465 0.529634 0.544721 0.537192 0.538847 0.553145 0.496821 0.483137 0.465781 0.449100 0.469358 0.477329 0.487476 0.496856 0.480316 0.480219 0.476258 0.471163 0.487491 0.464296 0.432874 0.445460 0.418868 0.398652 0.410597 0.407080 0.407195 0.422410 0.393559 0.373641 0.394480 0.405440 0.408663 0.411343 0.422924 0.401253 0.443629 0.429790 0.427321 0.433994 0.410027 0.386299 0.388029 0.367267 0.379147 0.366766 0.363122 0.389887 0.359759 0.351578 0.368772 0.383279 0.314751 0.348200 0.373658 0.352600 0.399936 0.364905 0.356034 0.289964 0.304344 0.275826 0.276714 0.304243 0.234688 0.216612 0.188454 0.195001 0.170391 0.184998 0.174907 0.145945 0.099751 0.087045 0.072696 0.089342 0.096073 0.081708 0.074419 0.074419 0.074419 0.074419 0.088284 0.088284 0.088284 0.088284 0.088284 0.088284 0.088284 0.088284 0.088284 0.088284 0.088284 0.088284 0.088284 0.088284 0.028100 0.028100 0.028100 0.028100 0.028100 0.028100 0.028100 0.028100 0.028100 0.028100 0.028100 0.028100
0.000000 0.000000 0.000000 0.000000 0.000000 0.000000 0.000000 0.000000 0.000000 0.000000 0.000000 0.000000 0.000000 0.000000 0.000000 0.000000 0.000000 0.000000 0.000000 0.000000 0.000000 0.000000 0.000000 0.000000 0.000000 7.000000 4.000000 0.000000 0.000000 0.000000 0.000000 0.000000 0.000000 0.000000 0.000000 0.000000 0.000000 0.000000 0.000000 0.000000 0.000000 0.000000 0.000000 0.000000 0.000000 0.000000 0.000000 0.000000 0.000000 0.000000 0.000000 0.000000 0.209657 0.209657 0.209657 0.209657 0.209657 0.209657 0.209657 0.209657 0.209657 0.209657 0.209657 0.209657 0.209657 0.209657 0.209657 0.209657 0.209657 0.209657 0.209657 0.209657 0.209657 0.209657 0.209657 0.209657 0.209657 0.209657 0.209657 0.209657 0.209657 0.209657 0.209657 0.209657 0.209657 0.244339 0.244339 0.244339 0.244339 0.244339 0.244339 0.244339 0.244339 0.244339 0.244339 0.244339 0.244339 0.244339 0.244339 0.244339 0.244339 0.244339 0.244339 0.244339 0.244339 0.244339 0.244339 0.244339 0.244339 0.244339 0.260378 0.260378 0.260378 0.260378 0.260378 0.260378 0.260378 0.260378 0.260378 0.260378 0.260378 0.260378 0.260378 0.260378 0.260378 0.260378 0.260378 0.260378 0.260378 0.260378 0.269680 0.269680 0.269680 0.269680 0.269680 0.269680 0.269680 0.269680 0.269680 0.269680 0.269680 0.269680 0.269680 0.269680 0.269680 0.269680 0.269680 0.269680 0.269680 0.269680 0.269680 0.269680 0.269680 0.269680 0.269680 0.269680 0.269680 0.269680 0.269680 0.269680 0.269680 0.269680 0.269680 0.280056 0.280056 0.280056 0.280056 0.280056 0.280056 0.280056 0.280056 0.280056 0.280056 0.280056 0.280056 0.280056 0.280056 0.280056 0.280056 0.280056 0.280056 0.280056 0.280056 0.280056 0.280056 0.280056 0.280056 0.280056 0.280056 0.280056 0.285714 0.285714 0.285714 0.285714 0.285714 0.285714 0.285714 0.285714 0.285714 0.285714 0.285714 0.285714 0.274721 0.274721 0.274721 0.274721 0.274721 0.274721 0.274721 0.274721 0.274721 0.274721 0.274721 0.274721 0.280056 0.280056 0.280056 0.280056 0.280056 0.280056 0.280056 0.280056 0.280056 0.280056 0.280056 0.274721 0.274721 0.274721 0.274721 0.274721 0.274721 0.274721 0.274721 0.274721 0.274721 0.274721 0.280056 0.280056 0.280056 0.280056 0.280056 0.280056 0.280056 0.280056 0.280056 0.280056 0.285714 0.285714 0.285714 0.285714 0.285714 0.285714 0.285714 0.285714 0.285714 0.280056 0.280056 0.280056 0.280056 0.280056 0.280056 0.280056 0.280056 0.280056 0.274721 0.274721 0.274721 0.274721 0.274721 0.274721 0.274721 0.274721 0.274721 0.269680 0.269680 0.269680 0.269680 0.269680 0.269680 0.269680 0.269680 0.269680 0.264906 0.264906 0.264906 0.264906 0.264906 0.264906 0.264906 0.264906 0.264906 0.274721 0.274721 0.274721 0.274721 0.274721 0.274721 0.274721 0.274721 0.269680 0.269680 0.269680 0.269680 0.269680 0.269680 0.269680 0.269680 0.285714 0.285714 0.285714 0.285714 0.285714 0.285714 0.285714 0.264906 0.264906 0.264906 0.264906 0.264906 0.264906 0.264906 0.264906 0.274721 0.274721 0.274721 0.274721 0.274721 0.274721 0.274721 0.256074 0.256074 0.256074 0.256074 0.256074 0.256074 0.256074 0.256074 0.264906 0.264906 0.264906 0.264906 0.264906 0.264906 0.264906 0.264906 0.264906 0.264906 0.264906 0.264906 0.264906 0.264906 0.280056 0.280056 0.280056 0.280056 0.280056 0.280056 0.280056 0.280056 0.280056 0.280056 0.280056 0.280056
