# Output from CTFFind version 4.1.9, run on 2019-11-02 17:45:47
# Input file: stack6_bm3d_averaged_1_0.5_0_1000_half.mrc ; Number of micrographs: 1
# Pixel size: 3.000 Angstroms ; acceleration voltage: 300.0 keV ; spherical aberration: 0.00 mm ; amplitude contrast: 0.07
# Box size: 512 pixels ; min. res.: 30.0 Angstroms ; max. res.: 5.0 Angstroms ; min. def.: 5000.0 um; max. def. 50000.0 um; num. frames averaged: 1
# 6 lines per micrograph: #1 - spatial frequency (1/Angstroms); #2 - 1D rotational average of spectrum (assuming no astigmatism); #3 - 1D rotational average of spectrum; #4 - CTF fit; #5 - cross-correlation between spectrum and CTF fit; #6 - 2sigma of expected cross correlation of noise
0.000000 0.000651 0.001302 0.001953 0.002604 0.003255 0.003906 0.004557 0.005208 0.005859 0.006510 0.007161 0.007812 0.008464 0.009115 0.009766 0.010417 0.011068 0.011719 0.012370 0.013021 0.013672 0.014323 0.014974 0.015625 0.016276 0.016927 0.017578 0.018229 0.018880 0.019531 0.020182 0.020833 0.021484 0.022135 0.022786 0.023438 0.024089 0.024740 0.025391 0.026042 0.026693 0.027344 0.027995 0.028646 0.029297 0.029948 0.030599 0.031250 0.031901 0.032552 0.033203 0.033854 0.034505 0.035156 0.035807 0.036458 0.037109 0.037760 0.038411 0.039062 0.039714 0.040365 0.041016 0.041667 0.042318 0.042969 0.043620 0.044271 0.044922 0.045573 0.046224 0.046875 0.047526 0.048177 0.048828 0.049479 0.050130 0.050781 0.051432 0.052083 0.052734 0.053385 0.054036 0.054688 0.055339 0.055990 0.056641 0.057292 0.057943 0.058594 0.059245 0.059896 0.060547 0.061198 0.061849 0.062500 0.063151 0.063802 0.064453 0.065104 0.065755 0.066406 0.067057 0.067708 0.068359 0.069010 0.069661 0.070312 0.070964 0.071615 0.072266 0.072917 0.073568 0.074219 0.074870 0.075521 0.076172 0.076823 0.077474 0.078125 0.078776 0.079427 0.080078 0.080729 0.081380 0.082031 0.082682 0.083333 0.083984 0.084635 0.085286 0.085938 0.086589 0.087240 0.087891 0.088542 0.089193 0.089844 0.090495 0.091146 0.091797 0.092448 0.093099 0.093750 0.094401 0.095052 0.095703 0.096354 0.097005 0.097656 0.098307 0.098958 0.099609 0.100260 0.100911 0.101562 0.102214 0.102865 0.103516 0.104167 0.104818 0.105469 0.106120 0.106771 0.107422 0.108073 0.108724 0.109375 0.110026 0.110677 0.111328 0.111979 0.112630 0.113281 0.113932 0.114583 0.115234 0.115885 0.116536 0.117188 0.117839 0.118490 0.119141 0.119792 0.120443 0.121094 0.121745 0.122396 0.123047 0.123698 0.124349 0.125000 0.125651 0.126302 0.126953 0.127604 0.128255 0.128906 0.129557 0.130208 0.130859 0.131510 0.132161 0.132812 0.133464 0.134115 0.134766 0.135417 0.136068 0.136719 0.137370 0.138021 0.138672 0.139323 0.139974 0.140625 0.141276 0.141927 0.142578 0.143229 0.143880 0.144531 0.145182 0.145833 0.146484 0.147135 0.147786 0.148438 0.149089 0.149740 0.150391 0.151042 0.151693 0.152344 0.152995 0.153646 0.154297 0.154948 0.155599 0.156250 0.156901 0.157552 0.158203 0.158854 0.159505 0.160156 0.160807 0.161458 0.162109 0.162760 0.163411 0.164062 0.164714 0.165365 0.166016 0.166667 0.167318 0.167969 0.168620 0.169271 0.169922 0.170573 0.171224 0.171875 0.172526 0.173177 0.173828 0.174479 0.175130 0.175781 0.176432 0.177083 0.177734 0.178385 0.179036 0.179688 0.180339 0.180990 0.181641 0.182292 0.182943 0.183594 0.184245 0.184896 0.185547 0.186198 0.186849 0.187500 0.188151 0.188802 0.189453 0.190104 0.190755 0.191406 0.192057 0.192708 0.193359 0.194010 0.194661 0.195312 0.195964 0.196615 0.197266 0.197917 0.198568 0.199219 0.199870 0.200521 0.201172 0.201823 0.202474 0.203125 0.203776 0.204427 0.205078 0.205729 0.206380 0.207031 0.207682 0.208333 0.208984 0.209635 0.210286 0.210938 0.211589 0.212240 0.212891 0.213542 0.214193 0.214844 0.215495 0.216146 0.216797 0.217448 0.218099 0.218750 0.219401 0.220052 0.220703 0.221354 0.222005 0.222656 0.223307 0.223958 0.224609 0.225260 0.225911 0.226562 0.227214 0.227865 0.228516 0.229167 0.229818 0.230469 0.231120 0.231771 0.232422 0.233073 0.233724 0.234375 0.235026 0.235677
       0.31165        0.31165        0.31165        0.31165        0.31165        0.31165        0.31165        0.31165        0.31165        0.31165        0.31165        0.31165        0.31165        0.31165        0.31165        0.31165        0.31165        0.31165        0.31165        0.31165        0.31165        0.31165        0.31165        0.31165        0.31165        0.31165        0.31165        0.31165        0.31165        0.31165        0.31165        0.31165        0.31165        0.31165        0.31165        0.31165        0.31165        0.31165        0.31165        0.31165        0.31165        0.31165        0.31165        0.31165        0.31165        0.31165        0.31165        0.31165        0.31165        0.31165        0.31165        0.63418        0.81960        0.41750        0.31229        0.18811       -0.10537        0.11179       -0.00316        0.03353        0.11812        0.33618        0.42331        0.40563        0.22505       -0.01267        0.04804        0.07063       -0.16797       -0.17989       -0.08626       -0.10728       -0.29217       -0.18901       -0.30164       -0.25694       -0.28607       -0.40236       -0.47557       -0.47855       -0.42257       -0.33759       -0.43969       -0.36775       -0.40805       -0.34824       -0.27529       -0.19919       -0.19293       -0.13576       -0.09381        0.03789        0.08361        0.25040        0.27948        0.36881        0.40312        0.52066        0.59052        0.60794        0.74080        0.70071        0.74190        0.65050        0.66575        0.69649        0.63342        0.61506        0.60854        0.43541        0.40005        0.35838        0.32311        0.22210        0.13104        0.06002        0.05807        0.00080       -0.07958       -0.02980       -0.03134       -0.06996        0.06230        0.16338        0.25369        0.32190        0.33538        0.43140        0.54921        0.59539        0.54479        0.67157        0.56674        0.54419        0.59798        0.64379        0.53287        0.45917        0.40718        0.37524        0.24887        0.21371        0.13060        0.11629        0.05486        0.05619        0.10859        0.16911        0.14397        0.18061        0.21924        0.24023        0.33186        0.45915        0.49320        0.49778        0.51996        0.57904        0.57032        0.52238        0.42618        0.38475        0.36686        0.27141        0.24653        0.21309        0.20601        0.20192        0.18088        0.16100        0.12723        0.19286        0.25000        0.34756        0.38433        0.40705        0.46257        0.53661        0.47590        0.48401        0.42288        0.40219        0.38363        0.36304        0.28915        0.25613        0.19632        0.23150        0.21589        0.19060        0.21903        0.22500        0.24073        0.30003        0.40183        0.40266        0.37269        0.39069        0.45570        0.48529        0.42646        0.35241        0.32580        0.27649        0.26181        0.24858        0.21339        0.28388        0.29215        0.29596        0.31665        0.31224        0.34925        0.37303        0.37172        0.37384        0.35729        0.31853        0.33407        0.31739        0.29640        0.28097        0.27201        0.21793        0.27273        0.27347        0.30144        0.32085        0.34566        0.38016        0.34176        0.32036        0.36200        0.36796        0.26560        0.29401        0.30481        0.24368        0.20867        0.25806        0.27257        0.27681        0.29969        0.30704        0.33622        0.33479        0.36270        0.32582        0.32036        0.30927        0.29611        0.27669        0.25181        0.25402        0.25740        0.27676        0.29958        0.29828        0.30251        0.31334        0.32535        0.26274        0.30385        0.26959        0.26174        0.27765        0.26346        0.26260        0.26603        0.31020        0.28496        0.31629        0.28593        0.27330        0.30606        0.30958        0.33061        0.31463        0.29047        0.25292        0.26575        0.26937        0.26314        0.31309        0.31643        0.33716        0.32007        0.31037        0.25482        0.27937        0.21007        0.20808        0.24520        0.25608        0.25764        0.28771        0.31113        0.29824        0.35050        0.30914        0.26108        0.23648        0.23572        0.29024        0.31421        0.30465        0.26777        0.28037        0.26389        0.32249        0.28303        0.25292        0.26540        0.25521        0.28824        0.24974        0.28535        0.32773        0.28969        0.21977        0.23802        0.28712        0.32044        0.26982        0.26455        0.24285        0.27607        0.29319        0.37695        0.28859        0.27249        0.25388        0.25724        0.22064        0.17819        0.24732        0.22641        0.20763        0.18368        0.19536        0.23941        0.22421        0.23399        0.19450        0.25551        0.22644        0.20729        0.17574        0.16891        0.19716        0.24236        0.13859        0.05657        0.20007        0.19839        0.14930        0.24680        0.15347        0.21441        0.21455       -0.04514       -0.47238       -0.95498
2.842043 2.814088 2.786276 2.758608 2.731084 2.703703 2.676467 2.649375 2.622426 2.595621 2.568960 2.542443 2.516070 2.489840 2.463755 2.437813 2.412015 2.386362 2.360852 2.335485 2.310263 2.285185 2.260250 2.235459 2.210812 2.186309 2.161950 2.137735 2.113663 2.089735 2.065952 2.042312 2.018816 1.995464 1.972255 1.949191 1.926270 1.903493 1.880861 1.858371 1.836026 1.813825 1.791768 1.769854 1.748084 1.726458 1.704976 1.683638 1.662444 1.641393 1.620487 1.914464 2.271379 1.696978 1.737871 1.377045 0.939580 1.195682 1.018943 1.070075 1.028309 1.488300 1.514232 1.537620 1.278088 0.938287 0.822067 1.007084 0.713088 0.488167 0.586517 0.676842 0.420676 0.486460 0.323991 0.368612 0.244010 0.158204 -0.036609 0.001208 0.021251 0.081902 0.037061 0.072224 -0.040025 0.029179 0.111655 0.224078 0.284818 0.208546 0.317935 0.550496 0.450168 0.726272 0.788323 0.874529 0.908335 1.120004 1.144220 1.172782 1.324396 1.235495 1.369569 1.194343 1.112896 1.294365 1.143659 1.050670 1.125465 0.885854 0.741231 0.679847 0.672009 0.457748 0.392897 0.257815 0.228224 0.092737 -0.006244 0.088665 0.027572 -0.063962 0.113141 0.251961 0.306111 0.464087 0.485928 0.554578 0.724544 0.826974 0.662517 0.962380 0.802065 0.666545 0.765569 0.805641 0.715063 0.637735 0.447555 0.501000 0.281641 0.190201 0.140681 0.006442 -0.018011 -0.109418 -0.016378 0.031271 0.085956 -0.048298 0.252747 0.097625 0.210079 0.378352 0.440522 0.531134 0.435305 0.568754 0.647242 0.506700 0.391720 0.336630 0.323244 0.148754 0.141275 0.010356 0.091681 0.028369 -0.001095 -0.024111 -0.117520 -0.008485 0.024820 0.110244 0.296921 0.203658 0.356504 0.372431 0.424336 0.418759 0.387201 0.330171 0.230439 0.304257 0.167572 0.154843 0.003441 0.042664 0.063612 -0.026364 -0.008573 0.019218 0.059599 0.073684 0.215759 0.308595 0.245315 0.209003 0.379243 0.408067 0.351602 0.242210 0.175390 0.147793 0.081144 0.075613 0.026281 0.021429 0.134418 0.055824 0.186116 0.094051 0.142983 0.234342 0.212684 0.235512 0.199882 0.200856 0.118585 0.164823 0.123803 0.094203 0.110952 -0.000262 0.035374 0.090789 0.049496 0.147513 0.124662 0.212016 0.212640 0.139256 0.132083 0.235472 0.115425 0.073491 0.085392 0.059788 -0.000978 -0.030364 0.045883 0.071922 0.033422 0.117789 0.113360 0.126524 0.131170 0.179752 0.113686 0.081252 0.102776 0.085625 0.029018 0.015366 0.033919 -0.001905 0.072340 0.103811 0.067627 0.073678 0.130155 0.092305 0.018022 0.113458 0.028621 0.029782 0.064002 0.019417 0.019549 0.059587 0.086947 0.027419 0.111079 0.052695 0.028551 0.110235 0.070982 0.093977 0.086617 0.019320 -0.008458 0.001513 0.040674 0.003988 0.072648 0.095477 0.092935 0.055999 0.136383 -0.017389 0.027999 -0.092586 -0.016529 -0.041756 0.006401 0.020369 0.031861 0.071489 0.084037 0.106292 0.012899 -0.021016 -0.061047 -0.077387 0.068822 0.052164 0.048427 -0.015684 0.001127 -0.027280 0.065171 0.015490 -0.064290 -0.016669 -0.073793 0.023746 -0.046075 0.020839 0.063666 -0.009769 -0.073203 -0.041859 0.098322 0.040152 0.005773 0.004149 -0.048620 0.074749 0.079479 0.174975 0.044270 0.016528 0.030461 0.049575 -0.047920 -0.044267 0.054706 0.019735 -0.020275 -0.040182 -0.033639 0.095437 -0.045687 0.065542 0.008125 0.130208 -0.003291 0.064710 -0.088986 -0.011498 -0.036230 0.119520 -0.026584 -0.225715 0.280332 0.286864 0.211078 0.416617 0.186186 0.280838 0.361013 -0.061385 -1.333679
0.072396 0.072834 0.074148 0.076338 0.079404 0.083344 0.088157 0.093844 0.100401 0.107828 0.116121 0.125277 0.135293 0.146165 0.157886 0.170451 0.183852 0.198080 0.213125 0.228974 0.245615 0.263031 0.281205 0.300117 0.319744 0.340061 0.361040 0.382650 0.404856 0.427619 0.450899 0.474649 0.498821 0.523359 0.548205 0.573297 0.598566 0.623940 0.649340 0.674685 0.699886 0.724849 0.749478 0.773666 0.797308 0.820287 0.842487 0.863784 0.884051 0.903156 0.920965 0.937339 0.952138 0.965218 0.976435 0.985644 0.992702 0.997462 0.999785 0.999530 0.996565 0.990758 0.981988 0.970139 0.955107 0.936797 0.915126 0.890025 0.861443 0.829342 0.793705 0.754533 0.711852 0.665708 0.616173 0.563345 0.507348 0.448334 0.386487 0.322017 0.255167 0.186210 0.115450 0.043220 0.030114 0.104160 0.178497 0.252678 0.326230 0.398663 0.469462 0.538102 0.604042 0.666737 0.725637 0.780193 0.829867 0.874130 0.912475 0.944419 0.969512 0.987342 0.997543 0.999801 0.993862 0.979536 0.956706 0.925331 0.885455 0.837209 0.780813 0.716586 0.644940 0.566388 0.481539 0.391098 0.295866 0.196728 0.094657 0.009300 0.114029 0.218360 0.321079 0.420940 0.516683 0.607050 0.690797 0.766721 0.833671 0.890574 0.936450 0.970431 0.991785 0.999930 0.994450 0.975114 0.941887 0.894938 0.834652 0.761635 0.676711 0.580922 0.475522 0.361964 0.241890 0.117105 0.010444 0.138692 0.265493 0.388652 0.505964 0.615256 0.714422 0.801480 0.874601 0.932161 0.972780 0.995359 0.999119 0.983625 0.948814 0.895015 0.822955 0.733760 0.628956 0.510444 0.380479 0.241632 0.096753 0.051096 0.198689 0.342709 0.479827 0.606773 0.720421 0.817871 0.896530 0.954185 0.989076 0.999961 0.986162 0.947614 0.884881 0.799172 0.692333 0.566819 0.425652 0.272363 0.110905 0.054431 0.219136 0.378595 0.528223 0.663593 0.780582 0.875495 0.945198 0.987231 0.999909 0.982399 0.934781 0.858074 0.754240 0.626150 0.477525 0.312846 0.137228 0.043729 0.224105 0.397864 0.559040 0.701959 0.821447 0.913016 0.973065 0.999024 0.989489 0.944309 0.864634 0.752911 0.612840 0.449269 0.268047 0.075831 0.120144 0.312336 0.493184 0.655407 0.792302 0.898045 0.967945 0.998680 0.988474 0.937223 0.846542 0.719757 0.561812 0.379091 0.179204 0.029333 0.237444 0.435870 0.615608 0.768304 0.886671 0.964852 0.998738 0.986205 0.927280 0.824196 0.681347 0.505140 0.303734 0.086685 0.135481 0.351779 0.551298 0.723768 0.860094 0.952864 0.996778 0.988987 0.929305 0.820296 0.667205 0.477751 0.261773 0.030742 0.202829 0.426043 0.626350 0.792252 0.913984 0.984126 0.998088 0.954449 0.855125 0.705332 0.513379 0.290225 0.048909 0.196201 0.430253 0.638804 0.808729 0.929078 0.991809 0.992371 0.930081 0.808261 0.634123 0.418396 0.174701 0.081259 0.332714 0.562902 0.756195 0.899204 0.981719 0.997500 0.944796 0.826573 0.650416 0.428103 0.174872 0.091590 0.352358 0.588613 0.782999 0.920938 0.991765 0.989601 0.913910 0.769648 0.567026 0.320832 0.049431 0.226598 0.485993 0.708447 0.876222 0.975617 0.998131 0.941260 0.808827 0.610815 0.362685 0.084224 0.201974 0.472347 0.704281 0.878036 0.978479 0.996453 0.929690 0.783154 0.568757 0.304477 0.012903 0.280639 0.550281 0.771899 0.925297 0.996122 0.977262 0.869658 0.682368 0.431904 0.140866 0.164068 0.454525 0.703096 0.885944 0.985140 0.990503 0.900729 0.723701 0.475886 0.180917 0.132623 0.433908 0.692908 0.883406
1.000000 1.000000 1.000000 1.000000 1.000000 1.000000 1.000000 1.000000 1.000000 1.000000 1.000000 1.000000 1.000000 1.000000 1.000000 1.000000 1.000000 1.000000 1.000000 1.000000 1.000000 1.000000 1.000000 1.000000 1.000000 1.000000 1.000000 1.000000 1.000000 1.000000 1.000000 1.000000 1.000000 1.000000 1.000000 1.000000 1.000000 1.000000 1.000000 1.000000 1.000000 1.000000 1.000000 1.000000 1.000000 1.000000 1.000000 1.000000 1.000000 1.000000 1.000000 1.000000 0.833274 0.833274 0.833274 0.833274 0.833274 0.833274 0.833274 0.815334 0.815334 0.815334 0.815334 0.815334 0.815334 0.815334 0.815334 0.815334 0.815334 0.815334 0.815334 0.815334 0.815334 0.815334 0.815334 0.815334 0.815334 0.815334 0.815334 0.815334 0.815334 0.815334 0.815334 0.815334 0.815334 0.815334 0.815334 0.815334 0.815334 0.815334 0.815334 0.815334 0.815334 0.815334 0.815334 0.815334 0.815334 0.815334 0.815334 0.815334 0.815334 0.815334 0.815334 0.952246 0.952885 0.949918 0.948793 0.947069 0.943818 0.939434 0.938998 0.940361 0.940562 0.941177 0.943288 0.944281 0.945926 0.947108 0.947938 0.948758 0.956888 0.960597 0.961133 0.960777 0.951276 0.958009 0.957199 0.954971 0.955776 0.956083 0.956797 0.956671 0.956500 0.955969 0.954672 0.955411 0.955253 0.954506 0.953446 0.951121 0.951080 0.950617 0.950745 0.951718 0.952422 0.953082 0.953613 0.953586 0.953776 0.953760 0.953658 0.948689 0.948719 0.942165 0.942822 0.943957 0.943603 0.942502 0.941044 0.941100 0.940969 0.940888 0.940702 0.940927 0.921753 0.921199 0.921228 0.921363 0.913662 0.902619 0.895136 0.888521 0.889462 0.893662 0.898681 0.899217 0.896247 0.895345 0.879591 0.876539 0.863264 0.860245 0.848638 0.859197 0.860366 0.861769 0.855443 0.854788 0.853380 0.851519 0.842700 0.847043 0.847324 0.843173 0.839423 0.837613 0.836132 0.838261 0.846991 0.844012 0.840067 0.842179 0.830119 0.820905 0.819817 0.822239 0.830031 0.842274 0.842146 0.841353 0.834701 0.830990 0.824551 0.818540 0.816631 0.818330 0.816207 0.819893 0.817996 0.825619 0.815589 0.810358 0.815199 0.824512 0.829635 0.832306 0.834954 0.833026 0.833838 0.819206 0.819949 0.818243 0.768243 0.769619 0.759720 0.759504 0.745993 0.744992 0.740364 0.738625 0.730869 0.714587 0.725961 0.721524 0.698011 0.706116 0.700702 0.687180 0.664181 0.671233 0.685735 0.694403 0.693286 0.693610 0.682391 0.681715 0.692177 0.691248 0.697291 0.689649 0.686678 0.679527 0.682360 0.672127 0.672991 0.670597 0.669673 0.669908 0.665876 0.654939 0.662796 0.657722 0.649918 0.640905 0.599382 0.560023 0.543019 0.536403 0.518825 0.498173 0.515179 0.523065 0.503625 0.495228 0.476815 0.440560 0.434502 0.433072 0.413717 0.398886 0.378845 0.341449 0.349021 0.350664 0.351850 0.337519 0.339295 0.324393 0.284286 0.273084 0.236374 0.252993 0.269918 0.259887 0.236096 0.236426 0.247293 0.242392 0.253383 0.251743 0.267497 0.221947 0.167446 0.179580 0.178590 0.187431 0.170188 0.142722 0.170377 0.156498 0.168194 0.171725 0.126368 0.095412 0.075630 0.051552 0.056285 0.081021 0.097358 0.090704 0.066863 -0.023807 0.009371 0.038591 0.038591 0.038591 0.038591 0.038591 0.038591 0.038591 0.038591 0.038591 0.038591 0.038591 -0.028236 -0.028236 -0.028236 -0.028236 -0.028236 -0.028236 -0.028236 -0.028236 -0.028236 -0.028236 -0.028236 -0.028236 -0.028236 -0.028236 -0.028236 -0.028236 -0.028236 -0.028236 -0.028236
0.000000 0.000000 0.000000 0.000000 0.000000 0.000000 0.000000 0.000000 0.000000 0.000000 0.000000 0.000000 0.000000 0.000000 0.000000 0.000000 0.000000 0.000000 0.000000 0.000000 0.000000 0.000000 0.000000 0.000000 0.000000 0.000000 0.000000 0.000000 0.000000 0.000000 0.000000 0.000000 0.000000 0.000000 0.000000 0.000000 0.000000 0.000000 0.000000 0.000000 0.000000 0.000000 0.000000 0.000000 0.000000 0.000000 0.000000 0.000000 0.000000 0.000000 0.000000 0.000000 0.173422 0.173422 0.173422 0.173422 0.173422 0.173422 0.173422 0.191565 0.191565 0.191565 0.191565 0.191565 0.191565 0.191565 0.191565 0.191565 0.191565 0.191565 0.191565 0.191565 0.191565 0.191565 0.191565 0.191565 0.191565 0.191565 0.191565 0.191565 0.191565 0.191565 0.191565 0.191565 0.191565 0.191565 0.191565 0.191565 0.191565 0.191565 0.191565 0.191565 0.191565 0.191565 0.191565 0.191565 0.191565 0.191565 0.191565 0.191565 0.191565 0.191565 0.191565 0.219529 0.219529 0.219529 0.219529 0.219529 0.219529 0.219529 0.219529 0.219529 0.219529 0.219529 0.219529 0.219529 0.219529 0.219529 0.219529 0.219529 0.219529 0.219529 0.219529 0.219529 0.219529 0.219529 0.219529 0.219529 0.219529 0.219529 0.219529 0.219529 0.219529 0.219529 0.237356 0.237356 0.237356 0.237356 0.237356 0.237356 0.237356 0.237356 0.237356 0.237356 0.237356 0.237356 0.237356 0.237356 0.237356 0.237356 0.237356 0.237356 0.237356 0.237356 0.237356 0.237356 0.237356 0.237356 0.244339 0.244339 0.244339 0.244339 0.244339 0.244339 0.244339 0.244339 0.244339 0.244339 0.244339 0.244339 0.244339 0.244339 0.244339 0.244339 0.244339 0.244339 0.244339 0.244339 0.244339 0.248069 0.248069 0.248069 0.248069 0.248069 0.248069 0.248069 0.248069 0.248069 0.248069 0.248069 0.248069 0.248069 0.248069 0.248069 0.248069 0.248069 0.248069 0.248069 0.248069 0.248069 0.248069 0.248069 0.248069 0.248069 0.248069 0.248069 0.248069 0.248069 0.248069 0.248069 0.248069 0.248069 0.248069 0.248069 0.248069 0.248069 0.256074 0.256074 0.256074 0.256074 0.256074 0.256074 0.256074 0.256074 0.256074 0.256074 0.256074 0.256074 0.256074 0.256074 0.256074 0.256074 0.256074 0.256074 0.256074 0.256074 0.256074 0.256074 0.256074 0.256074 0.256074 0.256074 0.256074 0.256074 0.256074 0.256074 0.256074 0.256074 0.256074 0.256074 0.256074 0.256074 0.256074 0.256074 0.256074 0.256074 0.256074 0.256074 0.256074 0.256074 0.256074 0.260378 0.260378 0.260378 0.260378 0.260378 0.260378 0.260378 0.260378 0.260378 0.260378 0.260378 0.260378 0.260378 0.256074 0.256074 0.256074 0.256074 0.256074 0.256074 0.256074 0.256074 0.256074 0.256074 0.256074 0.256074 0.256074 0.260378 0.260378 0.260378 0.260378 0.260378 0.260378 0.260378 0.260378 0.260378 0.260378 0.260378 0.260378 0.251976 0.251976 0.251976 0.251976 0.251976 0.251976 0.251976 0.251976 0.251976 0.251976 0.251976 0.251976 0.256074 0.256074 0.256074 0.256074 0.256074 0.256074 0.256074 0.256074 0.256074 0.256074 0.256074 0.251976 0.251976 0.251976 0.251976 0.251976 0.251976 0.251976 0.251976 0.251976 0.251976 0.251976 0.248069 0.248069 0.248069 0.248069 0.248069 0.248069 0.248069 0.248069 0.248069 0.248069 0.248069 0.256074 0.256074 0.256074 0.256074 0.256074 0.256074 0.256074 0.256074 0.256074 0.256074 0.256074 0.256074 0.256074 0.256074 0.256074 0.256074 0.256074 0.256074 0.256074
