# Output from CTFFind version 4.1.9, run on 2019-11-03 19:37:58
# Input file: stack6_bm3d_averaged_1_4.75_0_50_half.mrc ; Number of micrographs: 1
# Pixel size: 3.000 Angstroms ; acceleration voltage: 300.0 keV ; spherical aberration: 0.00 mm ; amplitude contrast: 0.07
# Box size: 512 pixels ; min. res.: 30.0 Angstroms ; max. res.: 5.0 Angstroms ; min. def.: 5000.0 um; max. def. 50000.0 um; num. frames averaged: 1
# 6 lines per micrograph: #1 - spatial frequency (1/Angstroms); #2 - 1D rotational average of spectrum (assuming no astigmatism); #3 - 1D rotational average of spectrum; #4 - CTF fit; #5 - cross-correlation between spectrum and CTF fit; #6 - 2sigma of expected cross correlation of noise
0.000000 0.000651 0.001302 0.001953 0.002604 0.003255 0.003906 0.004557 0.005208 0.005859 0.006510 0.007161 0.007812 0.008464 0.009115 0.009766 0.010417 0.011068 0.011719 0.012370 0.013021 0.013672 0.014323 0.014974 0.015625 0.016276 0.016927 0.017578 0.018229 0.018880 0.019531 0.020182 0.020833 0.021484 0.022135 0.022786 0.023438 0.024089 0.024740 0.025391 0.026042 0.026693 0.027344 0.027995 0.028646 0.029297 0.029948 0.030599 0.031250 0.031901 0.032552 0.033203 0.033854 0.034505 0.035156 0.035807 0.036458 0.037109 0.037760 0.038411 0.039062 0.039714 0.040365 0.041016 0.041667 0.042318 0.042969 0.043620 0.044271 0.044922 0.045573 0.046224 0.046875 0.047526 0.048177 0.048828 0.049479 0.050130 0.050781 0.051432 0.052083 0.052734 0.053385 0.054036 0.054688 0.055339 0.055990 0.056641 0.057292 0.057943 0.058594 0.059245 0.059896 0.060547 0.061198 0.061849 0.062500 0.063151 0.063802 0.064453 0.065104 0.065755 0.066406 0.067057 0.067708 0.068359 0.069010 0.069661 0.070312 0.070964 0.071615 0.072266 0.072917 0.073568 0.074219 0.074870 0.075521 0.076172 0.076823 0.077474 0.078125 0.078776 0.079427 0.080078 0.080729 0.081380 0.082031 0.082682 0.083333 0.083984 0.084635 0.085286 0.085938 0.086589 0.087240 0.087891 0.088542 0.089193 0.089844 0.090495 0.091146 0.091797 0.092448 0.093099 0.093750 0.094401 0.095052 0.095703 0.096354 0.097005 0.097656 0.098307 0.098958 0.099609 0.100260 0.100911 0.101562 0.102214 0.102865 0.103516 0.104167 0.104818 0.105469 0.106120 0.106771 0.107422 0.108073 0.108724 0.109375 0.110026 0.110677 0.111328 0.111979 0.112630 0.113281 0.113932 0.114583 0.115234 0.115885 0.116536 0.117188 0.117839 0.118490 0.119141 0.119792 0.120443 0.121094 0.121745 0.122396 0.123047 0.123698 0.124349 0.125000 0.125651 0.126302 0.126953 0.127604 0.128255 0.128906 0.129557 0.130208 0.130859 0.131510 0.132161 0.132812 0.133464 0.134115 0.134766 0.135417 0.136068 0.136719 0.137370 0.138021 0.138672 0.139323 0.139974 0.140625 0.141276 0.141927 0.142578 0.143229 0.143880 0.144531 0.145182 0.145833 0.146484 0.147135 0.147786 0.148438 0.149089 0.149740 0.150391 0.151042 0.151693 0.152344 0.152995 0.153646 0.154297 0.154948 0.155599 0.156250 0.156901 0.157552 0.158203 0.158854 0.159505 0.160156 0.160807 0.161458 0.162109 0.162760 0.163411 0.164062 0.164714 0.165365 0.166016 0.166667 0.167318 0.167969 0.168620 0.169271 0.169922 0.170573 0.171224 0.171875 0.172526 0.173177 0.173828 0.174479 0.175130 0.175781 0.176432 0.177083 0.177734 0.178385 0.179036 0.179688 0.180339 0.180990 0.181641 0.182292 0.182943 0.183594 0.184245 0.184896 0.185547 0.186198 0.186849 0.187500 0.188151 0.188802 0.189453 0.190104 0.190755 0.191406 0.192057 0.192708 0.193359 0.194010 0.194661 0.195312 0.195964 0.196615 0.197266 0.197917 0.198568 0.199219 0.199870 0.200521 0.201172 0.201823 0.202474 0.203125 0.203776 0.204427 0.205078 0.205729 0.206380 0.207031 0.207682 0.208333 0.208984 0.209635 0.210286 0.210938 0.211589 0.212240 0.212891 0.213542 0.214193 0.214844 0.215495 0.216146 0.216797 0.217448 0.218099 0.218750 0.219401 0.220052 0.220703 0.221354 0.222005 0.222656 0.223307 0.223958 0.224609 0.225260 0.225911 0.226562 0.227214 0.227865 0.228516 0.229167 0.229818 0.230469 0.231120 0.231771 0.232422 0.233073 0.233724 0.234375 0.235026 0.235677
       0.30900        0.30900        0.30900        0.30900        0.30900        0.30900        0.30900        0.30900        0.30900        0.30900        0.30900        0.30900        0.30900        0.30900        0.30900        0.30900        0.30900        0.30900        0.30900        0.30900        0.30900        0.30900        0.30900        0.30900        0.30900        0.30900        0.30900        0.30900        0.30900        0.30900        0.30900        0.30900        0.30900        0.30900        0.30900        0.30900        0.30900        0.30900        0.30900        0.30900        0.30900        0.30900        0.30900        0.30900        0.30900        0.30900        0.30900        0.30900        0.30900        0.30900        0.30900        0.59689        0.72153        0.35610        0.18209        0.12661       -0.14917        0.10522        0.02678        0.03010        0.08741        0.30601        0.32386        0.25211        0.14657       -0.04322       -0.01473        0.03927       -0.13160       -0.14077       -0.08675       -0.10543       -0.22440       -0.14571       -0.26264       -0.27850       -0.27952       -0.34421       -0.41953       -0.36161       -0.26940       -0.23777       -0.33865       -0.25182       -0.30826       -0.24543       -0.17190       -0.12010       -0.08401       -0.01492        0.01969        0.11986        0.16275        0.21088        0.33234        0.39850        0.35327        0.46296        0.54632        0.55596        0.63572        0.57373        0.60799        0.59886        0.60993        0.60973        0.55321        0.56993        0.54845        0.39208        0.32993        0.36178        0.34080        0.18906        0.15822        0.12927        0.08274        0.08739       -0.00116        0.05815        0.03543       -0.00473        0.09503        0.15853        0.25608        0.34806        0.34061        0.36924        0.45539        0.48997        0.42054        0.64700        0.53499        0.47872        0.56629        0.49778        0.53129        0.49357        0.36607        0.30296        0.26853        0.22228        0.20859        0.18968        0.16799        0.12079        0.19721        0.18653        0.22685        0.19701        0.25752        0.30363        0.32705        0.44490        0.42762        0.41000        0.42949        0.47200        0.44586        0.43653        0.38916        0.39669        0.33360        0.27964        0.23509        0.24352        0.23721        0.18746        0.16101        0.21243        0.22059        0.26328        0.33551        0.35470        0.40921        0.39099        0.43769        0.45436        0.44932        0.42017        0.38820        0.40823        0.36764        0.32734        0.32813        0.30841        0.25389        0.27002        0.26576        0.22536        0.29153        0.27045        0.28124        0.31824        0.36861        0.40506        0.39892        0.41847        0.37175        0.40832        0.38972        0.30132        0.28011        0.23833        0.25627        0.21718        0.19765        0.28262        0.33370        0.30833        0.28023        0.33713        0.25979        0.32464        0.37160        0.36580        0.35776        0.37708        0.32123        0.33472        0.31514        0.28095        0.27667        0.24041        0.28508        0.29926        0.30896        0.33020        0.37368        0.37208        0.36499        0.32905        0.34750        0.33109        0.31624        0.31421        0.27957        0.28128        0.25226        0.31317        0.32262        0.31411        0.28956        0.32537        0.32678        0.32796        0.34010        0.31124        0.28046        0.28778        0.28610        0.26472        0.24350        0.22966        0.24275        0.25765        0.24281        0.27987        0.27745        0.31753        0.31510        0.26693        0.30113        0.26210        0.20447        0.26130        0.24152        0.22889        0.27323        0.29934        0.29274        0.29325        0.29670        0.29686        0.31070        0.32178        0.26585        0.30586        0.30179        0.34682        0.27539        0.26471        0.25475        0.30663        0.31053        0.32256        0.33578        0.30969        0.22192        0.27922        0.25287        0.24667        0.23864        0.24644        0.28230        0.23450        0.29380        0.30673        0.34289        0.30633        0.28423        0.24554        0.26067        0.26068        0.23867        0.26292        0.27798        0.31285        0.33194        0.29417        0.28918        0.26537        0.30048        0.26629        0.22615        0.19077        0.27628        0.33084        0.31709        0.30897        0.28433        0.23222        0.22079        0.23991        0.22179        0.22819        0.26810        0.27542        0.25457        0.22765        0.21505        0.26189        0.23442        0.25310        0.26583        0.25498        0.18114        0.22680        0.25486        0.23932        0.28215        0.24458        0.23359        0.19142        0.25405        0.27879        0.19991        0.21050        0.12889        0.14073        0.31041        0.17243        0.18328        0.30826        0.18589        0.17440        0.12429        0.20970        0.14166        0.15892       -0.04338       -0.61487       -0.98316
2.328213 2.308029 2.287939 2.267942 2.248038 2.228227 2.208510 2.188886 2.169355 2.149917 2.130573 2.111322 2.092164 2.073099 2.054128 2.035250 2.016465 1.997774 1.979175 1.960671 1.942259 1.923940 1.905715 1.887583 1.869544 1.851599 1.833747 1.815988 1.798322 1.780750 1.763271 1.745885 1.728592 1.711393 1.694287 1.677274 1.660354 1.643528 1.626795 1.610155 1.593609 1.577155 1.560795 1.544529 1.528355 1.512275 1.496288 1.480394 1.464594 1.448887 1.433273 1.792988 2.123286 1.475789 1.339359 1.086111 0.538069 0.916267 0.810634 0.849878 0.711498 1.370116 1.216131 1.229792 0.987657 0.640538 0.499578 0.757029 0.567389 0.244959 0.313440 0.477606 0.228961 0.258895 0.116376 0.015980 -0.017026 -0.016523 -0.292038 -0.176361 -0.018780 -0.046218 -0.106222 -0.014613 -0.142419 -0.114029 0.062675 0.153166 0.220072 0.265920 0.339289 0.587394 0.535933 0.614648 0.820648 0.994518 0.799576 1.187014 1.154342 1.220766 1.317777 1.227747 1.179168 1.333861 1.201045 1.327170 1.158140 1.096520 1.181084 0.949484 0.661556 0.718777 0.773251 0.471711 0.395598 0.339270 0.196265 0.190206 0.036714 0.171188 0.133972 0.005616 0.109981 0.224557 0.337730 0.597658 0.590957 0.560210 0.710640 0.871752 0.590220 1.024603 0.962521 0.779391 0.892673 0.749511 0.829899 0.855341 0.581233 0.407673 0.375725 0.318060 0.211453 0.167793 0.171722 -0.016514 0.164436 0.138753 0.226094 0.109492 0.265614 0.310185 0.274329 0.497722 0.587597 0.506159 0.406298 0.590186 0.586756 0.487859 0.494201 0.435418 0.307997 0.323256 0.115391 0.168865 0.051338 0.175636 -0.059674 0.041668 0.019393 0.229434 0.095875 0.362887 0.318005 0.372625 0.420721 0.412219 0.582657 0.369556 0.390986 0.444325 0.242259 0.339725 0.180323 0.271676 0.104208 0.141134 0.104807 0.094321 0.048624 0.167089 0.070494 0.159875 0.252579 0.281597 0.341455 0.297943 0.371237 0.275071 0.312979 0.211831 0.121304 0.063996 0.015889 0.037573 -0.058134 -0.024351 0.114454 0.212976 0.091419 0.122033 0.123720 0.058883 0.211831 0.258411 0.227444 0.271457 0.173142 0.167713 0.148279 0.132150 0.091755 -0.019213 0.022378 0.175876 0.035594 0.165735 0.148007 0.275551 0.186217 0.250154 0.204309 0.228059 0.123168 0.165167 0.153186 0.082433 0.036346 0.073112 0.153010 0.170344 0.141814 0.094256 0.181525 0.155189 0.124325 0.154278 0.057039 0.017129 0.067910 0.022258 0.010187 -0.047431 -0.069166 0.005052 -0.021641 -0.050309 0.029702 0.039197 0.105362 0.069391 -0.024195 0.068920 -0.059085 -0.101937 0.024568 -0.071277 -0.086292 0.051053 0.052279 0.025432 0.066307 -0.042467 0.072423 0.139597 -0.019888 -0.012341 0.101862 0.031457 0.134428 -0.037178 -0.010332 -0.047799 0.129120 0.039031 0.075908 0.121551 0.032479 -0.095048 -0.000379 -0.030030 -0.042787 -0.065536 -0.041831 0.005560 -0.098838 0.090047 0.093172 0.153404 0.056356 -0.003156 -0.012305 0.003443 0.021906 -0.044334 0.046289 0.027205 0.141700 0.115781 0.090856 0.072209 0.044556 0.150741 -0.009435 -0.003922 -0.110731 0.118518 0.183088 0.074733 0.179668 0.013755 -0.015182 -0.041764 -0.015573 -0.028263 -0.011170 0.057761 0.096318 0.024742 -0.008339 -0.029351 0.092870 0.049827 0.079946 0.098682 0.042120 -0.011687 0.029643 0.129710 0.053663 0.195440 0.089239 0.058410 0.079078 0.149430 0.206867 0.086846 0.103039 -0.063652 -0.121796 0.469213 0.315822 0.317951 0.598656 0.255892 0.306376 0.157927 0.458046 0.254253 0.313029 -0.067507 -1.743317
0.072396 0.072837 0.074161 0.076366 0.079452 0.083420 0.088267 0.093993 0.100596 0.108074 0.116425 0.125644 0.135730 0.146677 0.158479 0.171130 0.184622 0.198947 0.214093 0.230050 0.246801 0.264333 0.282626 0.301661 0.321414 0.341859 0.362969 0.384710 0.407048 0.429944 0.453356 0.477236 0.501534 0.526196 0.551161 0.576364 0.601738 0.627208 0.652695 0.678113 0.703375 0.728384 0.753040 0.777239 0.800869 0.823816 0.845958 0.867171 0.887325 0.906286 0.923919 0.940083 0.954634 0.967429 0.978322 0.987165 0.993813 0.998121 0.999945 0.999147 0.995592 0.989149 0.979697 0.967122 0.951319 0.932195 0.909670 0.883679 0.854171 0.821113 0.784494 0.744320 0.700621 0.653451 0.602889 0.549040 0.492037 0.432043 0.369249 0.303878 0.236182 0.166447 0.094987 0.022150 0.051689 0.126123 0.200720 0.275019 0.348539 0.420774 0.491202 0.559286 0.624480 0.686228 0.743975 0.797170 0.845271 0.887751 0.924104 0.953853 0.976556 0.991811 0.999268 0.998628 0.989657 0.972190 0.946135 0.911482 0.868307 0.816776 0.757149 0.689783 0.615135 0.533760 0.446311 0.353540 0.256291 0.155494 0.052165 0.052612 0.157684 0.261850 0.363867 0.462470 0.556383 0.644339 0.725097 0.797461 0.860302 0.912573 0.953332 0.981763 0.997193 0.999107 0.987171 0.961239 0.921374 0.867848 0.801155 0.722012 0.631360 0.530356 0.420367 0.302958 0.179872 0.053008 0.075604 0.203830 0.329473 0.450306 0.564110 0.668720 0.762069 0.842228 0.907455 0.956237 0.987325 0.999781 0.993002 0.966753 0.921186 0.856856 0.774725 0.676157 0.562910 0.437113 0.301234 0.158036 0.010532 0.138079 0.284476 0.425291 0.557185 0.676930 0.781496 0.868130 0.934435 0.978446 0.998701 0.994290 0.964908 0.910886 0.833201 0.733484 0.613994 0.477584 0.327646 0.168034 0.002973 0.163041 0.325370 0.479354 0.620451 0.744378 0.847241 0.925678 0.976969 0.999151 0.991103 0.952612 0.884412 0.788195 0.666592 0.523111 0.362064 0.188449 0.007799 0.173980 0.350798 0.516587 0.665515 0.792191 0.891878 0.960685 0.995727 0.995273 0.958843 0.887267 0.782696 0.648569 0.489516 0.311224 0.120253 0.076204 0.270569 0.455181 0.622593 0.765881 0.878951 0.956799 0.995771 0.993745 0.950272 0.866647 0.745903 0.592736 0.413351 0.215227 0.006833 0.202727 0.404106 0.588132 0.746227 0.870831 0.955776 0.996621 0.990909 0.938342 0.840857 0.702599 0.529777 0.330420 0.114024 0.108871 0.327194 0.529881 0.706454 0.847562 0.945509 0.994703 0.992000 0.936944 0.831865 0.681825 0.494418 0.279420 0.048312 0.186318 0.411449 0.614347 0.783298 0.908315 0.981740 0.998767 0.957787 0.860567 0.712234 0.521054 0.298012 0.056223 0.189834 0.425143 0.635095 0.806396 0.927928 0.991521 0.992539 0.930262 0.808032 0.633138 0.416424 0.171680 0.085220 0.337318 0.567688 0.760581 0.902529 0.983319 0.996781 0.941309 0.820082 0.640947 0.415985 0.160736 0.106830 0.367569 0.602507 0.794245 0.928287 0.994161 0.986310 0.904613 0.754519 0.546756 0.296632 0.022956 0.253338 0.510791 0.729070 0.890619 0.982105 0.995581 0.929241 0.787702 0.581770 0.327687 0.045901 0.240519 0.507779 0.733320 0.897764 0.986619 0.991630 0.911615 0.752722 0.528038 0.256606 0.038147 0.330383 0.594098 0.805467 0.945023 0.999518 0.963254 0.838763 0.636740 0.375223 0.078047 0.227266 0.512034 0.749109 0.915506 0.994690 0.978296 0.867109 0.671167 0.408956 0.105751 0.208743 0.503302 0.748256 0.918522 0.996245
1.000000 1.000000 1.000000 1.000000 1.000000 1.000000 1.000000 1.000000 1.000000 1.000000 1.000000 1.000000 1.000000 1.000000 1.000000 1.000000 1.000000 1.000000 1.000000 1.000000 1.000000 1.000000 1.000000 1.000000 1.000000 1.000000 1.000000 1.000000 1.000000 1.000000 1.000000 1.000000 1.000000 1.000000 1.000000 1.000000 1.000000 1.000000 1.000000 1.000000 1.000000 1.000000 1.000000 1.000000 1.000000 1.000000 1.000000 1.000000 1.000000 1.000000 1.000000 1.000000 0.778540 0.778540 0.778540 0.778540 0.778540 0.778540 0.778540 0.763616 0.763616 0.763616 0.763616 0.763616 0.763616 0.763616 0.763616 0.763616 0.763616 0.763616 0.763616 0.763616 0.763616 0.763616 0.763616 0.763616 0.763616 0.763616 0.763616 0.763616 0.763616 0.763616 0.763616 0.763616 0.763616 0.763616 0.763616 0.763616 0.763616 0.763616 0.763616 0.763616 0.763616 0.763616 0.763616 0.763616 0.763616 0.763616 0.763616 0.763616 0.763616 0.763616 0.763616 0.910502 0.910790 0.913454 0.907669 0.909489 0.907150 0.901238 0.904169 0.903303 0.903171 0.904083 0.905311 0.907219 0.910599 0.917100 0.920035 0.927876 0.931355 0.932537 0.932301 0.929411 0.936066 0.933456 0.931302 0.920183 0.923628 0.923025 0.923658 0.922205 0.922624 0.923524 0.923924 0.921462 0.919831 0.917331 0.915578 0.916061 0.915575 0.915528 0.915689 0.915025 0.916070 0.916717 0.912512 0.915088 0.913667 0.910599 0.906577 0.906581 0.907684 0.901071 0.898605 0.888607 0.890694 0.889870 0.893572 0.889475 0.889551 0.890668 0.891465 0.892164 0.889821 0.889921 0.886409 0.886588 0.882788 0.878543 0.873932 0.873528 0.876077 0.882700 0.886221 0.886280 0.883842 0.878182 0.868649 0.866774 0.851669 0.825369 0.826209 0.828672 0.830673 0.831754 0.830419 0.829261 0.826252 0.821568 0.815907 0.821165 0.821349 0.813819 0.801380 0.801037 0.798218 0.805658 0.810032 0.801998 0.803641 0.802820 0.807702 0.808417 0.805222 0.804226 0.799957 0.802954 0.811288 0.811699 0.802965 0.796346 0.792054 0.774625 0.777701 0.782756 0.795056 0.797673 0.793134 0.780849 0.790051 0.785038 0.794930 0.807058 0.807511 0.806582 0.792341 0.754158 0.740802 0.734936 0.737479 0.739007 0.729194 0.725177 0.724981 0.727602 0.688321 0.678967 0.669432 0.664590 0.671912 0.674875 0.674630 0.627768 0.648246 0.645524 0.625222 0.620050 0.584954 0.575131 0.521404 0.525998 0.524102 0.496837 0.483527 0.472063 0.488034 0.499805 0.499715 0.493146 0.471331 0.454859 0.449821 0.448368 0.459460 0.460120 0.463945 0.420378 0.401378 0.396753 0.417579 0.421582 0.419997 0.435745 0.446280 0.448148 0.435146 0.414893 0.411207 0.425146 0.436458 0.445793 0.448096 0.434311 0.416839 0.397955 0.401240 0.440278 0.434124 0.428419 0.412858 0.420023 0.408485 0.385449 0.361928 0.343147 0.386406 0.393314 0.393180 0.354749 0.319776 0.333820 0.328829 0.325037 0.315783 0.351640 0.372469 0.368598 0.372750 0.363221 0.399202 0.472095 0.461406 0.456492 0.474828 0.463913 0.446935 0.426861 0.407708 0.405493 0.394323 0.386257 0.368361 0.362174 0.353673 0.351326 0.368780 0.373511 0.403579 0.383425 0.339558 0.195012 0.245983 0.245983 0.245983 0.245983 0.245983 0.245983 0.245983 0.245983 0.245983 0.245983 0.245983 0.191541 0.191541 0.191541 0.191541 0.191541 0.191541 0.191541 0.191541 0.191541 0.191541 0.191541 0.191541 0.191541 0.191541 0.191541 0.191541 0.191541 0.191541 0.191541 0.191541
0.000000 0.000000 0.000000 0.000000 0.000000 0.000000 0.000000 0.000000 0.000000 0.000000 0.000000 0.000000 0.000000 0.000000 0.000000 0.000000 0.000000 0.000000 0.000000 0.000000 0.000000 0.000000 0.000000 0.000000 0.000000 0.000000 0.000000 0.000000 0.000000 0.000000 0.000000 0.000000 0.000000 0.000000 0.000000 0.000000 0.000000 0.000000 0.000000 0.000000 0.000000 0.000000 0.000000 0.000000 0.000000 0.000000 0.000000 0.000000 0.000000 0.000000 0.000000 0.000000 0.173422 0.173422 0.173422 0.173422 0.173422 0.173422 0.173422 0.191565 0.191565 0.191565 0.191565 0.191565 0.191565 0.191565 0.191565 0.191565 0.191565 0.191565 0.191565 0.191565 0.191565 0.191565 0.191565 0.191565 0.191565 0.191565 0.191565 0.191565 0.191565 0.191565 0.191565 0.191565 0.191565 0.191565 0.191565 0.191565 0.191565 0.191565 0.191565 0.191565 0.191565 0.191565 0.191565 0.191565 0.191565 0.191565 0.191565 0.191565 0.191565 0.191565 0.191565 0.222222 0.222222 0.222222 0.222222 0.222222 0.222222 0.222222 0.222222 0.222222 0.222222 0.222222 0.222222 0.222222 0.222222 0.222222 0.222222 0.222222 0.222222 0.222222 0.222222 0.222222 0.222222 0.222222 0.222222 0.222222 0.222222 0.222222 0.222222 0.222222 0.222222 0.234082 0.234082 0.234082 0.234082 0.234082 0.234082 0.234082 0.234082 0.234082 0.234082 0.234082 0.234082 0.234082 0.234082 0.234082 0.234082 0.234082 0.234082 0.234082 0.234082 0.234082 0.234082 0.234082 0.234082 0.234082 0.244339 0.244339 0.244339 0.244339 0.244339 0.244339 0.244339 0.244339 0.244339 0.244339 0.244339 0.244339 0.244339 0.244339 0.244339 0.244339 0.244339 0.244339 0.244339 0.244339 0.244339 0.248069 0.248069 0.248069 0.248069 0.248069 0.248069 0.248069 0.248069 0.248069 0.248069 0.248069 0.248069 0.248069 0.248069 0.248069 0.248069 0.248069 0.248069 0.248069 0.256074 0.256074 0.256074 0.256074 0.256074 0.256074 0.256074 0.256074 0.256074 0.256074 0.256074 0.256074 0.256074 0.256074 0.256074 0.256074 0.256074 0.256074 0.256074 0.256074 0.256074 0.256074 0.256074 0.256074 0.256074 0.256074 0.256074 0.256074 0.256074 0.256074 0.256074 0.256074 0.256074 0.256074 0.256074 0.256074 0.256074 0.256074 0.256074 0.256074 0.256074 0.256074 0.256074 0.256074 0.256074 0.256074 0.256074 0.256074 0.256074 0.256074 0.256074 0.256074 0.256074 0.256074 0.256074 0.256074 0.256074 0.256074 0.256074 0.256074 0.256074 0.256074 0.260378 0.260378 0.260378 0.260378 0.260378 0.260378 0.260378 0.260378 0.260378 0.260378 0.260378 0.260378 0.260378 0.256074 0.256074 0.256074 0.256074 0.256074 0.256074 0.256074 0.256074 0.256074 0.256074 0.256074 0.256074 0.256074 0.260378 0.260378 0.260378 0.260378 0.260378 0.260378 0.260378 0.260378 0.260378 0.260378 0.260378 0.260378 0.251976 0.251976 0.251976 0.251976 0.251976 0.251976 0.251976 0.251976 0.251976 0.251976 0.251976 0.251976 0.256074 0.256074 0.256074 0.256074 0.256074 0.256074 0.256074 0.256074 0.256074 0.256074 0.256074 0.251976 0.251976 0.251976 0.251976 0.251976 0.251976 0.251976 0.251976 0.251976 0.251976 0.251976 0.248069 0.248069 0.248069 0.248069 0.248069 0.248069 0.248069 0.248069 0.248069 0.248069 0.248069 0.256074 0.256074 0.256074 0.256074 0.256074 0.256074 0.256074 0.256074 0.256074 0.256074 0.256074 0.256074 0.256074 0.256074 0.256074 0.256074 0.256074 0.256074 0.256074 0.256074
