# Output from CTFFind version 4.1.9, run on 2019-11-03 19:00:10
# Input file: stack1_bm3d_averaged_1_3.25_0_50_half.mrc ; Number of micrographs: 1
# Pixel size: 3.000 Angstroms ; acceleration voltage: 300.0 keV ; spherical aberration: 0.00 mm ; amplitude contrast: 0.07
# Box size: 512 pixels ; min. res.: 30.0 Angstroms ; max. res.: 5.0 Angstroms ; min. def.: 5000.0 um; max. def. 50000.0 um; num. frames averaged: 1
# 6 lines per micrograph: #1 - spatial frequency (1/Angstroms); #2 - 1D rotational average of spectrum (assuming no astigmatism); #3 - 1D rotational average of spectrum; #4 - CTF fit; #5 - cross-correlation between spectrum and CTF fit; #6 - 2sigma of expected cross correlation of noise
0.000000 0.000651 0.001302 0.001953 0.002604 0.003255 0.003906 0.004557 0.005208 0.005859 0.006510 0.007161 0.007812 0.008464 0.009115 0.009766 0.010417 0.011068 0.011719 0.012370 0.013021 0.013672 0.014323 0.014974 0.015625 0.016276 0.016927 0.017578 0.018229 0.018880 0.019531 0.020182 0.020833 0.021484 0.022135 0.022786 0.023438 0.024089 0.024740 0.025391 0.026042 0.026693 0.027344 0.027995 0.028646 0.029297 0.029948 0.030599 0.031250 0.031901 0.032552 0.033203 0.033854 0.034505 0.035156 0.035807 0.036458 0.037109 0.037760 0.038411 0.039062 0.039714 0.040365 0.041016 0.041667 0.042318 0.042969 0.043620 0.044271 0.044922 0.045573 0.046224 0.046875 0.047526 0.048177 0.048828 0.049479 0.050130 0.050781 0.051432 0.052083 0.052734 0.053385 0.054036 0.054688 0.055339 0.055990 0.056641 0.057292 0.057943 0.058594 0.059245 0.059896 0.060547 0.061198 0.061849 0.062500 0.063151 0.063802 0.064453 0.065104 0.065755 0.066406 0.067057 0.067708 0.068359 0.069010 0.069661 0.070312 0.070964 0.071615 0.072266 0.072917 0.073568 0.074219 0.074870 0.075521 0.076172 0.076823 0.077474 0.078125 0.078776 0.079427 0.080078 0.080729 0.081380 0.082031 0.082682 0.083333 0.083984 0.084635 0.085286 0.085938 0.086589 0.087240 0.087891 0.088542 0.089193 0.089844 0.090495 0.091146 0.091797 0.092448 0.093099 0.093750 0.094401 0.095052 0.095703 0.096354 0.097005 0.097656 0.098307 0.098958 0.099609 0.100260 0.100911 0.101562 0.102214 0.102865 0.103516 0.104167 0.104818 0.105469 0.106120 0.106771 0.107422 0.108073 0.108724 0.109375 0.110026 0.110677 0.111328 0.111979 0.112630 0.113281 0.113932 0.114583 0.115234 0.115885 0.116536 0.117188 0.117839 0.118490 0.119141 0.119792 0.120443 0.121094 0.121745 0.122396 0.123047 0.123698 0.124349 0.125000 0.125651 0.126302 0.126953 0.127604 0.128255 0.128906 0.129557 0.130208 0.130859 0.131510 0.132161 0.132812 0.133464 0.134115 0.134766 0.135417 0.136068 0.136719 0.137370 0.138021 0.138672 0.139323 0.139974 0.140625 0.141276 0.141927 0.142578 0.143229 0.143880 0.144531 0.145182 0.145833 0.146484 0.147135 0.147786 0.148438 0.149089 0.149740 0.150391 0.151042 0.151693 0.152344 0.152995 0.153646 0.154297 0.154948 0.155599 0.156250 0.156901 0.157552 0.158203 0.158854 0.159505 0.160156 0.160807 0.161458 0.162109 0.162760 0.163411 0.164062 0.164714 0.165365 0.166016 0.166667 0.167318 0.167969 0.168620 0.169271 0.169922 0.170573 0.171224 0.171875 0.172526 0.173177 0.173828 0.174479 0.175130 0.175781 0.176432 0.177083 0.177734 0.178385 0.179036 0.179688 0.180339 0.180990 0.181641 0.182292 0.182943 0.183594 0.184245 0.184896 0.185547 0.186198 0.186849 0.187500 0.188151 0.188802 0.189453 0.190104 0.190755 0.191406 0.192057 0.192708 0.193359 0.194010 0.194661 0.195312 0.195964 0.196615 0.197266 0.197917 0.198568 0.199219 0.199870 0.200521 0.201172 0.201823 0.202474 0.203125 0.203776 0.204427 0.205078 0.205729 0.206380 0.207031 0.207682 0.208333 0.208984 0.209635 0.210286 0.210938 0.211589 0.212240 0.212891 0.213542 0.214193 0.214844 0.215495 0.216146 0.216797 0.217448 0.218099 0.218750 0.219401 0.220052 0.220703 0.221354 0.222005 0.222656 0.223307 0.223958 0.224609 0.225260 0.225911 0.226562 0.227214 0.227865 0.228516 0.229167 0.229818 0.230469 0.231120 0.231771 0.232422 0.233073 0.233724 0.234375 0.235026 0.235677
       0.34497        0.34497        0.34497        0.34497        0.34497        0.34497        0.34497        0.34497        0.34497        0.34497        0.34497        0.34497        0.34497        0.34497        0.34497        0.34497        0.34497        0.34497        0.34497        0.34497        0.34497        0.34497        0.34497        0.34497        0.34497        0.34497        0.34497        0.34497        0.34497        0.34497        0.34497        0.34497        0.34497        0.34497        0.34497        0.34497        0.34497        0.34497        0.34497        0.34497        0.34497        0.34497        0.34497        0.34497        0.34497        0.34497        0.34497        0.34497        0.34497        0.34497        0.34497        0.48726        0.70636        0.39424        0.20004       -0.04206       -0.22558       -0.03873       -0.11170       -0.08004        0.01405       -0.11881       -0.09557       -0.05009       -0.04020       -0.12596       -0.16525       -0.30406       -0.46080       -0.55002       -0.50529       -0.42881       -0.34404       -0.54253       -0.40619       -0.52439       -0.44454       -0.45401       -0.34900       -0.32772       -0.29016       -0.19877       -0.11937       -0.11479        0.03158        0.01547        0.17651        0.17242        0.33008        0.41971        0.50067        0.55127        0.56556        0.57898        0.70370        0.62500        0.65628        0.58697        0.55125        0.60924        0.50522        0.46640        0.40013        0.31639        0.28389        0.28976        0.25276        0.10638        0.09449       -0.00429        0.04443        0.05340        0.01179        0.08378        0.14561        0.23336        0.29672        0.28672        0.39134        0.54500        0.55174        0.56370        0.66618        0.64528        0.62405        0.66200        0.63808        0.53753        0.52778        0.43173        0.35856        0.28018        0.20199        0.14429        0.15739        0.12258        0.16124        0.15222        0.23526        0.24077        0.33521        0.36772        0.40841        0.50198        0.56349        0.57642        0.54353        0.59789        0.51212        0.47221        0.50152        0.37453        0.28762        0.27602        0.26285        0.18308        0.19897        0.18973        0.21705        0.24423        0.33507        0.39308        0.42863        0.44044        0.45598        0.49214        0.43794        0.50721        0.44098        0.37304        0.35858        0.38089        0.32714        0.29275        0.23280        0.25198        0.23830        0.26885        0.27974        0.37837        0.39374        0.38761        0.42964        0.45608        0.43480        0.43607        0.46967        0.37548        0.33860        0.32176        0.28085        0.32913        0.28121        0.30783        0.32661        0.33105        0.33872        0.41768        0.38785        0.42305        0.39313        0.41675        0.37845        0.37694        0.30422        0.29872        0.28065        0.27384        0.28177        0.35201        0.37061        0.36148        0.37710        0.38579        0.35890        0.43846        0.40041        0.38548        0.35994        0.32540        0.30243        0.31962        0.31576        0.35234        0.31529        0.33455        0.35196        0.37870        0.38018        0.35454        0.35144        0.36596        0.35501        0.30833        0.32738        0.32079        0.34773        0.32252        0.34128        0.35371        0.31984        0.33790        0.35709        0.32277        0.31075        0.30493        0.30508        0.31835        0.31251        0.34657        0.30738        0.32066        0.32938        0.32127        0.31396        0.30265        0.31063        0.31119        0.31481        0.31446        0.32182        0.32103        0.33631        0.32522        0.39501        0.38502        0.31669        0.35335        0.34524        0.26004        0.26465        0.32667        0.30679        0.28054        0.33295        0.30497        0.33687        0.37414        0.37364        0.31491        0.29108        0.28861        0.33028        0.34576        0.39671        0.34258        0.31031        0.31267        0.29049        0.26999        0.29693        0.29940        0.33528        0.30400        0.28493        0.27443        0.33798        0.35772        0.33188        0.27684        0.29953        0.35737        0.36462        0.36897        0.33979        0.32213        0.28867        0.31078        0.31848        0.33873        0.33407        0.24023        0.22997        0.31122        0.30843        0.29656        0.27234        0.28066        0.24293        0.25239        0.29781        0.32277        0.30412        0.26597        0.32170        0.40221        0.35630        0.26704        0.27314        0.26735        0.27378        0.31047        0.35250        0.29882        0.31158        0.32599        0.24579        0.30796        0.26602        0.25081        0.21365        0.26806        0.20791        0.22894        0.28564        0.25923        0.34210        0.32982        0.25764        0.20919        0.16004        0.31046        0.37034        0.30327        0.17729        0.16831        0.30943        0.23922        0.14890       -0.09307       -0.01805       -0.56053       -0.98095
2.739626 2.710524 2.681581 2.652797 2.624172 2.595706 2.567398 2.539250 2.511261 2.483430 2.455759 2.428246 2.400893 2.373698 2.346663 2.319786 2.293068 2.266510 2.240110 2.213869 2.187787 2.161864 2.136100 2.110495 2.085049 2.059762 2.034634 2.009665 1.984855 1.960204 1.935711 1.911378 1.887203 1.863188 1.839332 1.815634 1.792096 1.768716 1.745495 1.722434 1.699531 1.676787 1.654202 1.631776 1.609510 1.587402 1.565453 1.543663 1.522032 1.500559 1.479246 1.515427 1.875977 1.706934 1.194445 1.029210 0.532871 0.937397 0.635554 0.820454 0.898847 0.633741 0.657122 0.771561 0.742509 0.608610 0.577836 0.374296 0.066124 0.029865 0.015180 0.012633 0.320428 -0.086787 0.041865 -0.060779 -0.003609 -0.030604 0.081212 0.066588 0.133527 0.194350 0.299457 0.263205 0.447718 0.375120 0.624840 0.535205 0.774081 0.808297 0.913759 1.025111 0.973434 0.988707 1.141280 1.069275 1.054525 0.927981 0.909285 0.963278 0.824849 0.804115 0.654439 0.550643 0.525861 0.473400 0.472334 0.250245 0.216483 0.112370 0.055573 0.182200 0.016614 0.090131 0.202093 0.267278 0.336238 0.333305 0.453359 0.536856 0.676766 0.548425 0.812184 0.721903 0.661600 0.752904 0.706876 0.620251 0.469691 0.498129 0.312591 0.244098 0.112371 0.038242 0.005366 0.016068 -0.052872 0.006036 0.082388 0.089257 0.110060 0.245761 0.249956 0.351473 0.448026 0.449963 0.467362 0.457773 0.447195 0.308569 0.354397 0.309115 0.077658 0.079362 0.036021 -0.030872 -0.028526 -0.086432 -0.026223 -0.037635 0.055928 0.136965 0.211264 0.224483 0.225860 0.250134 0.334169 0.266470 0.296338 0.216046 0.144202 0.147594 0.136372 0.043257 0.031386 -0.058812 0.015644 0.007673 0.039632 0.063669 0.162682 0.132296 0.153357 0.234459 0.253855 0.174945 0.253235 0.177169 0.149783 0.074146 0.017607 0.058855 0.023104 0.023614 0.036265 0.098344 0.025020 0.117215 0.197309 0.090275 0.178629 0.127572 0.148404 0.093149 0.089190 -0.011650 0.005513 -0.027607 -0.053404 0.013366 0.097475 0.106442 0.020646 0.152526 0.073464 0.076592 0.162960 0.075164 0.097298 0.049326 -0.016473 -0.007219 0.018811 -0.006041 0.058273 0.002036 0.008688 0.061028 0.089113 0.075491 0.060597 0.025007 0.082825 0.026605 0.008453 0.020621 0.016942 0.057685 0.028798 0.037876 0.049631 -0.008584 0.034946 0.047512 0.005457 -0.022590 0.000285 -0.007631 -0.021575 0.003550 0.035031 -0.004239 0.001753 0.042401 -0.005356 0.001986 0.009657 0.001140 -0.007916 0.035899 0.006385 0.023527 -0.001589 0.051445 0.031602 0.124397 0.085345 0.036570 0.057370 0.035351 -0.061997 -0.014644 0.038474 0.004318 -0.025550 0.029295 0.019244 0.048218 0.069527 0.045662 0.006717 -0.070999 -0.008693 0.012888 0.036788 0.111436 0.011614 -0.014929 -0.012875 -0.034610 -0.096076 -0.022379 0.005430 0.001196 0.005842 -0.063160 -0.061002 0.032042 0.069872 0.007511 -0.048802 -0.025980 0.098601 0.063576 0.047169 0.003067 0.014182 -0.036863 0.004623 0.004307 -0.002554 0.054432 -0.147348 -0.081681 0.012019 0.026512 -0.000955 -0.065817 -0.040426 -0.053211 -0.038121 -0.033929 0.069026 0.012129 -0.020882 0.056119 0.160297 0.127515 -0.017425 0.023342 0.009731 0.071054 0.061533 0.170131 0.064898 0.107177 0.087939 0.036804 0.147723 0.046889 0.048126 -0.023414 0.117503 0.035060 0.044156 0.095782 0.140875 0.216567 0.185019 0.154306 -0.006809 0.019624 0.190497 0.325563 0.209670 0.187352 0.217980 0.456221 0.340754 0.140768 -0.274735 -0.016921 -1.216355
0.072396 0.072907 0.074439 0.076992 0.080565 0.085157 0.090768 0.097395 0.105037 0.113689 0.123349 0.134013 0.145674 0.158327 0.171962 0.186571 0.202141 0.218660 0.236112 0.254479 0.273739 0.293870 0.314842 0.336627 0.359189 0.382490 0.406485 0.431128 0.456364 0.482137 0.508380 0.535025 0.561996 0.589209 0.616577 0.644002 0.671383 0.698610 0.725566 0.752127 0.778163 0.803536 0.828101 0.851708 0.874199 0.895412 0.915179 0.933328 0.949682 0.964061 0.976285 0.986171 0.993536 0.998201 0.999986 0.998720 0.994233 0.986368 0.974974 0.959914 0.941063 0.918315 0.891579 0.860788 0.825893 0.786876 0.743743 0.696530 0.645306 0.590173 0.531269 0.468772 0.402894 0.333892 0.262063 0.187743 0.111313 0.033195 0.046150 0.126220 0.206478 0.286348 0.365227 0.442482 0.517457 0.589478 0.657859 0.721909 0.780938 0.834265 0.881228 0.921193 0.953559 0.977774 0.993340 0.999825 0.996873 0.984212 0.961667 0.929164 0.886741 0.834555 0.772888 0.702148 0.622878 0.535752 0.441577 0.341290 0.235953 0.126743 0.014946 0.098058 0.210809 0.321785 0.429419 0.532124 0.628319 0.716448 0.795013 0.862599 0.917903 0.959766 0.987195 0.999396 0.995796 0.976066 0.940142 0.888239 0.820866 0.738828 0.643229 0.535470 0.417231 0.290456 0.157330 0.020244 0.118243 0.255445 0.388610 0.514959 0.631759 0.736382 0.826361 0.899467 0.953760 0.987653 0.999966 0.989973 0.957444 0.902670 0.826484 0.730263 0.615923 0.485891 0.343070 0.190783 0.032708 0.127212 0.284853 0.436021 0.576563 0.702484 0.810072 0.896005 0.957478 0.992297 0.998975 0.976806 0.925920 0.847312 0.742851 0.615257 0.468047 0.305461 0.132352 0.045947 0.223781 0.395347 0.554882 0.696870 0.816226 0.908507 0.970083 0.998299 0.991614 0.949694 0.873471 0.765163 0.628229 0.467299 0.288029 0.096924 0.098875 0.291864 0.474450 0.639252 0.779418 0.888915 0.962813 0.997531 0.991032 0.942970 0.854759 0.729580 0.572296 0.389304 0.188294 0.022050 0.232407 0.433232 0.615188 0.769588 0.888833 0.966804 0.999210 0.983856 0.920819 0.812518 0.663672 0.481138 0.273629 0.051328 0.174587 0.392500 0.590948 0.759239 0.888046 0.969952 0.999918 0.975629 0.897708 0.769774 0.598325 0.392460 0.163442 0.075899 0.311857 0.530630 0.719142 0.865834 0.961411 0.999475 0.976997 0.894607 0.756656 0.571057 0.348880 0.103749 0.148971 0.393112 0.612744 0.793210 0.922158 0.990412 0.992686 0.928051 0.800115 0.616908 0.390433 0.135950 0.129017 0.385874 0.616239 0.803279 0.932989 0.995271 0.984795 0.901519 0.750834 0.543294 0.293952 0.021342 0.253889 0.510500 0.728313 0.889829 0.981684 0.995819 0.930265 0.789458 0.584035 0.330121 0.048129 0.238828 0.506820 0.733085 0.898009 0.986880 0.991266 0.909918 0.749038 0.521926 0.247971 0.048945 0.342462 0.606085 0.815591 0.951291 0.999962 0.956230 0.823255 0.612625 0.343473 0.040813 0.266721 0.549550 0.780014 0.935111 0.998881 0.964138 0.833394 0.618819 0.341235 0.028197 0.288684 0.576902 0.806396 0.952748 0.999864 0.941855 0.783893 0.541892 0.241042 0.086720 0.406047 0.681964 0.883737 0.988373 0.983348 0.868234 0.655007 0.366950 0.036232 0.299599 0.601845 0.835130 0.971612 0.994412 0.899838 0.698104 0.412378 0.076283 0.269978 0.584387 0.828207 0.970838 0.993765 0.893113 0.680427 0.381526 0.033518 0.319706 0.632975 0.865617 0.986843 0.979938 0.844743 0.597993 0.271427 0.092128 0.444327 0.737668 0.931973
1.000000 1.000000 1.000000 1.000000 1.000000 1.000000 1.000000 1.000000 1.000000 1.000000 1.000000 1.000000 1.000000 1.000000 1.000000 1.000000 1.000000 1.000000 1.000000 1.000000 1.000000 1.000000 1.000000 1.000000 1.000000 1.000000 1.000000 1.000000 1.000000 1.000000 1.000000 1.000000 1.000000 1.000000 1.000000 1.000000 1.000000 1.000000 1.000000 1.000000 1.000000 1.000000 1.000000 1.000000 1.000000 1.000000 1.000000 1.000000 1.000000 1.000000 1.000000 1.000000 0.909047 0.909047 0.909047 0.893427 0.893427 0.893427 0.893427 0.893427 0.893427 0.893427 0.893427 0.893427 0.893427 0.893427 0.893427 0.893427 0.893427 0.893427 0.893427 0.893427 0.893427 0.893427 0.893427 0.893427 0.893427 0.893427 0.893427 0.893427 0.893427 0.893427 0.893427 0.893427 0.893427 0.893427 0.893427 0.893427 0.893427 0.893427 0.893427 0.893427 0.893427 0.893427 0.893427 0.893427 0.898183 0.900003 0.901451 0.905081 0.905571 0.905195 0.904809 0.904581 0.904733 0.905768 0.916220 0.935627 0.947783 0.950212 0.955509 0.964006 0.964601 0.963641 0.969901 0.975784 0.973909 0.973309 0.971416 0.971268 0.973267 0.970073 0.970805 0.970504 0.974897 0.971569 0.970808 0.969937 0.969030 0.968314 0.967911 0.967983 0.968149 0.968472 0.968080 0.968220 0.968287 0.966529 0.965988 0.967271 0.967897 0.968610 0.969415 0.967011 0.962495 0.966861 0.966232 0.966006 0.966095 0.966011 0.963935 0.963363 0.963229 0.962067 0.962172 0.954498 0.952832 0.951642 0.950865 0.948273 0.944616 0.945439 0.947752 0.945596 0.937644 0.932368 0.898133 0.884822 0.884251 0.873552 0.876513 0.876660 0.877500 0.876937 0.874777 0.873936 0.872680 0.873223 0.873107 0.871056 0.870227 0.870067 0.853999 0.857997 0.850565 0.851642 0.831248 0.825284 0.825446 0.823941 0.825145 0.826540 0.830376 0.834010 0.831991 0.827518 0.823136 0.799409 0.769262 0.759715 0.770695 0.776702 0.777265 0.761277 0.733535 0.742672 0.750152 0.755742 0.762169 0.760474 0.749930 0.735069 0.722795 0.684312 0.688622 0.690137 0.687321 0.682137 0.679462 0.671278 0.680336 0.667928 0.648245 0.637903 0.628303 0.655861 0.616384 0.585588 0.577153 0.561371 0.559484 0.507923 0.509049 0.505657 0.496784 0.497997 0.492138 0.492921 0.500081 0.505112 0.505034 0.508708 0.497959 0.512635 0.499784 0.483496 0.484167 0.477589 0.464923 0.438059 0.440067 0.440546 0.443687 0.453866 0.462324 0.470930 0.467791 0.444240 0.426512 0.427160 0.445492 0.459911 0.435969 0.406829 0.347008 0.278002 0.287093 0.267560 0.268025 0.285125 0.291041 0.291251 0.285118 0.260846 0.254681 0.195551 0.117134 0.106240 0.099366 0.076050 0.101326 0.124463 0.102653 0.131280 0.177195 0.200657 0.184985 0.165034 0.118842 0.072056 0.080694 0.065111 0.056527 0.073209 0.075870 0.068337 0.058508 0.072339 0.041260 0.043124 -0.014913 -0.023034 -0.026131 -0.021135 -0.008124 -0.030952 -0.041960 -0.056246 -0.042881 -0.070247 -0.091470 -0.070611 -0.068848 -0.073254 -0.019285 -0.043378 -0.054581 -0.063463 -0.030740 -0.044242 0.002937 0.032823 0.034873 0.075101 0.095415 0.095162 0.084128 0.090595 0.044859 0.058587 0.102777 0.118164 0.137244 0.091180 0.057243 0.057243 0.057243 0.032294 0.032294 0.032294 0.032294 0.032294 0.032294 0.032294 0.032294 0.032294 0.019996 0.019996 0.019996 0.019996 0.019996 0.019996 0.019996 0.019996 0.019996 0.019996 0.019996 0.019996 0.019996 0.019996 0.019996 0.019996 0.019996
0.000000 0.000000 0.000000 0.000000 0.000000 0.000000 0.000000 0.000000 0.000000 0.000000 0.000000 0.000000 0.000000 0.000000 0.000000 0.000000 0.000000 0.000000 0.000000 0.000000 0.000000 0.000000 0.000000 0.000000 0.000000 0.000000 0.000000 0.000000 0.000000 0.000000 0.000000 0.000000 0.000000 0.000000 0.000000 0.000000 0.000000 0.000000 0.000000 0.000000 0.000000 0.000000 0.000000 0.000000 0.000000 0.000000 0.000000 0.000000 0.000000 0.000000 0.000000 0.000000 0.180334 0.180334 0.180334 0.199007 0.199007 0.199007 0.199007 0.199007 0.199007 0.199007 0.199007 0.199007 0.199007 0.199007 0.199007 0.199007 0.199007 0.199007 0.199007 0.199007 0.199007 0.199007 0.199007 0.199007 0.199007 0.199007 0.199007 0.199007 0.199007 0.199007 0.199007 0.199007 0.199007 0.199007 0.199007 0.199007 0.199007 0.199007 0.199007 0.199007 0.199007 0.199007 0.199007 0.199007 0.230940 0.230940 0.230940 0.230940 0.230940 0.230940 0.230940 0.230940 0.230940 0.230940 0.230940 0.230940 0.230940 0.230940 0.230940 0.230940 0.230940 0.230940 0.230940 0.230940 0.230940 0.230940 0.230940 0.230940 0.230940 0.230940 0.230940 0.230940 0.244339 0.244339 0.244339 0.244339 0.244339 0.244339 0.244339 0.244339 0.244339 0.244339 0.244339 0.244339 0.244339 0.244339 0.244339 0.244339 0.244339 0.244339 0.244339 0.244339 0.244339 0.244339 0.244339 0.256074 0.256074 0.256074 0.256074 0.256074 0.256074 0.256074 0.256074 0.256074 0.256074 0.256074 0.256074 0.256074 0.256074 0.256074 0.256074 0.256074 0.256074 0.256074 0.256074 0.256074 0.256074 0.256074 0.256074 0.256074 0.256074 0.256074 0.256074 0.256074 0.256074 0.256074 0.256074 0.256074 0.256074 0.256074 0.256074 0.256074 0.264906 0.264906 0.264906 0.264906 0.264906 0.264906 0.264906 0.264906 0.264906 0.264906 0.264906 0.264906 0.264906 0.264906 0.264906 0.264906 0.264906 0.264906 0.264906 0.264906 0.264906 0.264906 0.264906 0.264906 0.264906 0.264906 0.264906 0.264906 0.264906 0.264906 0.264906 0.264906 0.264906 0.264906 0.264906 0.264906 0.264906 0.264906 0.264906 0.264906 0.264906 0.264906 0.264906 0.264906 0.264906 0.264906 0.264906 0.264906 0.264906 0.264906 0.264906 0.264906 0.264906 0.264906 0.264906 0.264906 0.264906 0.264906 0.269680 0.269680 0.269680 0.269680 0.269680 0.269680 0.269680 0.269680 0.269680 0.269680 0.269680 0.269680 0.264906 0.264906 0.264906 0.264906 0.264906 0.264906 0.264906 0.264906 0.264906 0.264906 0.264906 0.264906 0.269680 0.269680 0.269680 0.269680 0.269680 0.269680 0.269680 0.269680 0.269680 0.269680 0.269680 0.264906 0.264906 0.264906 0.264906 0.264906 0.264906 0.264906 0.264906 0.264906 0.264906 0.264906 0.256074 0.256074 0.256074 0.256074 0.256074 0.256074 0.256074 0.256074 0.256074 0.256074 0.256074 0.264906 0.264906 0.264906 0.264906 0.264906 0.264906 0.264906 0.264906 0.264906 0.264906 0.269680 0.269680 0.269680 0.269680 0.269680 0.269680 0.269680 0.269680 0.269680 0.256074 0.256074 0.256074 0.256074 0.256074 0.256074 0.256074 0.256074 0.256074 0.256074 0.260378 0.260378 0.260378 0.260378 0.260378 0.260378 0.260378 0.260378 0.260378 0.256074 0.256074 0.256074 0.256074 0.256074 0.256074 0.256074 0.256074 0.256074 0.251976 0.251976 0.251976 0.251976 0.251976 0.251976 0.251976 0.251976 0.251976 0.251976 0.251976 0.251976 0.251976 0.251976 0.251976 0.251976 0.251976
