# Output from CTFFind version 4.1.9, run on 2019-11-03 19:46:05
# Input file: stack16_bm3d_averaged_1_5.25_0_750_half.mrc ; Number of micrographs: 1
# Pixel size: 3.000 Angstroms ; acceleration voltage: 300.0 keV ; spherical aberration: 0.00 mm ; amplitude contrast: 0.07
# Box size: 512 pixels ; min. res.: 30.0 Angstroms ; max. res.: 5.0 Angstroms ; min. def.: 5000.0 um; max. def. 50000.0 um; num. frames averaged: 1
# 6 lines per micrograph: #1 - spatial frequency (1/Angstroms); #2 - 1D rotational average of spectrum (assuming no astigmatism); #3 - 1D rotational average of spectrum; #4 - CTF fit; #5 - cross-correlation between spectrum and CTF fit; #6 - 2sigma of expected cross correlation of noise
0.000000 0.000651 0.001302 0.001953 0.002604 0.003255 0.003906 0.004557 0.005208 0.005859 0.006510 0.007161 0.007812 0.008464 0.009115 0.009766 0.010417 0.011068 0.011719 0.012370 0.013021 0.013672 0.014323 0.014974 0.015625 0.016276 0.016927 0.017578 0.018229 0.018880 0.019531 0.020182 0.020833 0.021484 0.022135 0.022786 0.023438 0.024089 0.024740 0.025391 0.026042 0.026693 0.027344 0.027995 0.028646 0.029297 0.029948 0.030599 0.031250 0.031901 0.032552 0.033203 0.033854 0.034505 0.035156 0.035807 0.036458 0.037109 0.037760 0.038411 0.039062 0.039714 0.040365 0.041016 0.041667 0.042318 0.042969 0.043620 0.044271 0.044922 0.045573 0.046224 0.046875 0.047526 0.048177 0.048828 0.049479 0.050130 0.050781 0.051432 0.052083 0.052734 0.053385 0.054036 0.054688 0.055339 0.055990 0.056641 0.057292 0.057943 0.058594 0.059245 0.059896 0.060547 0.061198 0.061849 0.062500 0.063151 0.063802 0.064453 0.065104 0.065755 0.066406 0.067057 0.067708 0.068359 0.069010 0.069661 0.070312 0.070964 0.071615 0.072266 0.072917 0.073568 0.074219 0.074870 0.075521 0.076172 0.076823 0.077474 0.078125 0.078776 0.079427 0.080078 0.080729 0.081380 0.082031 0.082682 0.083333 0.083984 0.084635 0.085286 0.085938 0.086589 0.087240 0.087891 0.088542 0.089193 0.089844 0.090495 0.091146 0.091797 0.092448 0.093099 0.093750 0.094401 0.095052 0.095703 0.096354 0.097005 0.097656 0.098307 0.098958 0.099609 0.100260 0.100911 0.101562 0.102214 0.102865 0.103516 0.104167 0.104818 0.105469 0.106120 0.106771 0.107422 0.108073 0.108724 0.109375 0.110026 0.110677 0.111328 0.111979 0.112630 0.113281 0.113932 0.114583 0.115234 0.115885 0.116536 0.117188 0.117839 0.118490 0.119141 0.119792 0.120443 0.121094 0.121745 0.122396 0.123047 0.123698 0.124349 0.125000 0.125651 0.126302 0.126953 0.127604 0.128255 0.128906 0.129557 0.130208 0.130859 0.131510 0.132161 0.132812 0.133464 0.134115 0.134766 0.135417 0.136068 0.136719 0.137370 0.138021 0.138672 0.139323 0.139974 0.140625 0.141276 0.141927 0.142578 0.143229 0.143880 0.144531 0.145182 0.145833 0.146484 0.147135 0.147786 0.148438 0.149089 0.149740 0.150391 0.151042 0.151693 0.152344 0.152995 0.153646 0.154297 0.154948 0.155599 0.156250 0.156901 0.157552 0.158203 0.158854 0.159505 0.160156 0.160807 0.161458 0.162109 0.162760 0.163411 0.164062 0.164714 0.165365 0.166016 0.166667 0.167318 0.167969 0.168620 0.169271 0.169922 0.170573 0.171224 0.171875 0.172526 0.173177 0.173828 0.174479 0.175130 0.175781 0.176432 0.177083 0.177734 0.178385 0.179036 0.179688 0.180339 0.180990 0.181641 0.182292 0.182943 0.183594 0.184245 0.184896 0.185547 0.186198 0.186849 0.187500 0.188151 0.188802 0.189453 0.190104 0.190755 0.191406 0.192057 0.192708 0.193359 0.194010 0.194661 0.195312 0.195964 0.196615 0.197266 0.197917 0.198568 0.199219 0.199870 0.200521 0.201172 0.201823 0.202474 0.203125 0.203776 0.204427 0.205078 0.205729 0.206380 0.207031 0.207682 0.208333 0.208984 0.209635 0.210286 0.210938 0.211589 0.212240 0.212891 0.213542 0.214193 0.214844 0.215495 0.216146 0.216797 0.217448 0.218099 0.218750 0.219401 0.220052 0.220703 0.221354 0.222005 0.222656 0.223307 0.223958 0.224609 0.225260 0.225911 0.226562 0.227214 0.227865 0.228516 0.229167 0.229818 0.230469 0.231120 0.231771 0.232422 0.233073 0.233724 0.234375 0.235026 0.235677
       0.33929        0.33929        0.33929        0.33929        0.33929        0.33929        0.33929        0.33929        0.33929        0.33929        0.33929        0.33929        0.33929        0.33929        0.33929        0.33929        0.33929        0.33929        0.33929        0.33929        0.33929        0.33929        0.33929        0.33929        0.33929        0.33929        0.33929        0.33929        0.33929        0.33929        0.33929        0.33929        0.33929        0.33929        0.33929        0.33929        0.33929        0.33929        0.33929        0.33929        0.33929        0.33929        0.33929        0.33929        0.33929        0.33929        0.33929        0.33929        0.33929        0.33929        0.33929        0.42164        0.55688        0.34309       -0.20938       -0.45681       -0.55310       -0.65186       -0.72272       -0.73479       -0.83338       -0.90143       -0.69607       -0.85372       -0.83294       -0.98020       -1.01663       -0.89865       -0.85758       -0.80957       -0.72912       -0.65874       -0.57068       -0.47594       -0.40884       -0.18028       -0.07681        0.02075        0.24590        0.24909        0.30601        0.36780        0.39558        0.50792        0.53442        0.57045        0.53025        0.47018        0.50560        0.51478        0.43653        0.32480        0.20333        0.17237        0.10422       -0.00649       -0.02215       -0.03054        0.04363        0.00766        0.06306        0.03761        0.15273        0.18896        0.40162        0.45565        0.54824        0.65547        0.68803        0.71268        0.63341        0.61052        0.53185        0.43474        0.38176        0.26610        0.20888        0.20148        0.09037        0.09524        0.08548        0.07437        0.08824        0.29997        0.40878        0.51373        0.53192        0.57135        0.60776        0.58628        0.57510        0.58135        0.56253        0.46233        0.29573        0.25568        0.24002        0.13536        0.08082        0.15321        0.18660        0.27441        0.34764        0.41760        0.46830        0.52736        0.59850        0.54444        0.50532        0.49282        0.35125        0.25843        0.24661        0.16734        0.17474        0.21735        0.26125        0.27282        0.31392        0.41896        0.45040        0.49720        0.45037        0.44192        0.47770        0.38315        0.32324        0.27893        0.24816        0.22238        0.22264        0.23257        0.32957        0.43424        0.42348        0.48699        0.55021        0.44020        0.40751        0.35212        0.30306        0.25700        0.27030        0.26510        0.28235        0.33198        0.34327        0.42465        0.46803        0.43278        0.45133        0.36378        0.37268        0.35111        0.25900        0.23920        0.23730        0.31348        0.37005        0.36344        0.38583        0.42991        0.43315        0.36641        0.33419        0.31440        0.34359        0.30277        0.27144        0.27384        0.34290        0.36304        0.37799        0.38697        0.37992        0.40886        0.39229        0.30863        0.28092        0.31039        0.33892        0.36388        0.35557        0.40108        0.33649        0.36748        0.38754        0.32831        0.34868        0.31096        0.29266        0.33353        0.33230        0.32027        0.34094        0.36174        0.32057        0.33978        0.31004        0.30857        0.28403        0.31082        0.30489        0.32386        0.36159        0.36174        0.34372        0.29976        0.28787        0.28048        0.32249        0.30066        0.30842        0.36147        0.35606        0.33538        0.30595        0.29988        0.30695        0.26880        0.29977        0.31216        0.32399        0.36140        0.33787        0.29493        0.32714        0.32672        0.31585        0.35232        0.33895        0.30526        0.32879        0.28747        0.31816        0.28655        0.30503        0.28676        0.31564        0.35637        0.32866        0.34862        0.30238        0.31647        0.33837        0.32968        0.30315        0.30308        0.33954        0.32618        0.32144        0.31394        0.30962        0.30067        0.30534        0.31709        0.31821        0.34037        0.33592        0.33281        0.28554        0.27496        0.26367        0.26440        0.35712        0.30640        0.35112        0.29231        0.25803        0.27817        0.35678        0.30168        0.27850        0.29008        0.31049        0.28926        0.26678        0.30636        0.26779        0.27284        0.29820        0.31777        0.32992        0.31960        0.29677        0.26448        0.26142        0.25501        0.26346        0.28809        0.35335        0.28305        0.19653        0.29724        0.27334        0.31225        0.23663        0.30077        0.30498        0.32663        0.28419        0.27038        0.26643        0.23400        0.28936        0.34020        0.35032        0.23870        0.27707        0.21725        0.21847        0.20548        0.33458        0.24559        0.20112        0.13291        0.22427        0.29717        0.20854        0.17673        0.07477       -0.54812       -0.70017
3.135656 3.096132 3.056864 3.017852 2.979095 2.940594 2.902349 2.864359 2.826626 2.789147 2.751925 2.714957 2.678246 2.641790 2.605590 2.569646 2.533957 2.498524 2.463347 2.428425 2.393759 2.359348 2.325194 2.291294 2.257651 2.224263 2.191131 2.158254 2.125634 2.093268 2.061159 2.029305 1.997707 1.966364 1.935277 1.904446 1.873870 1.843550 1.813486 1.783677 1.754124 1.724827 1.695785 1.666999 1.638469 1.610194 1.582175 1.554412 1.526904 1.499652 1.472655 1.507593 1.595196 1.534883 0.847753 0.590429 0.450267 0.382194 0.288004 0.209419 0.172264 -0.054819 0.197438 0.062219 -0.036812 -0.118722 -0.242507 -0.150750 -0.064362 -0.094482 -0.081418 0.030810 0.026549 0.220859 0.103747 0.351658 0.459684 0.483161 0.761328 0.685638 0.688587 0.829113 0.798484 0.834809 0.919976 0.862081 0.892916 0.728906 0.799754 0.845617 0.680821 0.605745 0.439461 0.425345 0.345625 0.185787 0.183133 0.116264 0.210829 0.118587 0.212019 0.106620 0.222006 0.233736 0.450657 0.409920 0.584763 0.623392 0.658299 0.727937 0.618664 0.596353 0.466978 0.417042 0.300078 0.269296 0.101651 0.161780 -0.023053 0.038468 -0.033758 -0.039813 -0.043849 0.035087 0.281431 0.299585 0.374600 0.318408 0.399467 0.410683 0.437407 0.418586 0.365557 0.345632 0.134443 0.085593 0.066555 -0.010107 -0.151426 -0.040920 -0.067395 0.042715 0.088316 0.162993 0.231229 0.238688 0.327368 0.422908 0.304881 0.370307 0.250036 0.141687 0.067609 0.047062 0.004257 0.045217 0.072855 0.104717 0.118118 0.183607 0.243244 0.308963 0.287972 0.226565 0.260762 0.231364 0.112829 0.076743 0.048420 0.034086 0.007737 -0.005880 0.038270 0.173586 0.191518 0.196755 0.309664 0.193216 0.203669 0.083432 0.074624 -0.000610 -0.005419 0.004253 -0.001969 0.042977 0.057929 0.095849 0.158822 0.144799 0.223822 0.130582 0.078740 0.103232 0.048651 -0.059909 -0.025552 0.018746 0.058555 0.074885 0.076904 0.156081 0.127683 0.151459 0.037979 0.055912 0.048081 0.049893 0.024637 -0.021655 0.038859 0.045216 0.087463 0.108785 0.093031 0.108434 0.127122 0.075241 0.011706 -0.002477 0.032560 0.081503 0.064405 0.100776 0.096034 0.051346 0.112030 0.068501 0.042166 0.082036 -0.019860 0.021746 0.061095 0.037178 0.043484 0.053779 0.071617 0.051163 0.060245 0.011613 0.019905 -0.003358 0.045759 0.002412 0.046812 0.068463 0.071764 0.038668 -0.011710 -0.008696 -0.017083 0.034048 -0.001571 0.013493 0.068835 0.057188 -0.008260 0.009099 -0.011950 0.010306 -0.044214 -0.006111 0.000099 0.030606 0.047735 0.018429 -0.017851 0.007006 0.007174 0.002185 0.044170 0.012344 -0.013776 0.041924 -0.042437 -0.017361 -0.048902 -0.013592 -0.042062 0.015346 0.041613 0.001484 0.002146 -0.004449 0.006255 0.023494 0.024554 -0.011871 -0.000375 0.022899 0.043423 0.013244 0.011019 0.038579 -0.007272 0.001317 0.023287 0.002481 0.077304 0.053660 0.032535 0.000771 -0.008691 -0.033916 0.001697 0.078615 -0.002365 0.075234 -0.018258 -0.024252 -0.019060 0.095081 -0.004795 -0.013191 0.024436 0.043703 0.009249 0.007064 0.029216 0.003818 0.014156 0.027086 0.068047 0.076410 0.051940 0.033918 0.003098 -0.002774 -0.005501 -0.015173 0.005918 0.108886 -0.024990 -0.093908 0.057817 -0.012272 0.048507 -0.056556 0.013356 0.017326 0.021382 -0.001124 -0.019600 -0.014661 -0.073935 0.024110 0.051204 0.067757 -0.124658 0.002738 -0.037792 -0.016679 -0.116215 0.112902 0.015893 0.006575 -0.075877 0.180759 0.259491 0.145473 0.134952 0.078911 -0.664856
0.072396 0.073047 0.074998 0.078250 0.082801 0.088650 0.095794 0.104231 0.113956 0.124966 0.137251 0.150806 0.165619 0.181678 0.198967 0.217468 0.237158 0.258012 0.280000 0.303084 0.327225 0.352376 0.378482 0.405484 0.433312 0.461891 0.491134 0.520948 0.551228 0.581861 0.612721 0.643672 0.674568 0.705251 0.735550 0.765286 0.794264 0.822283 0.849127 0.874574 0.898388 0.920328 0.940145 0.957584 0.972386 0.984288 0.993029 0.998348 0.999990 0.997706 0.991257 0.980421 0.964990 0.944779 0.919626 0.889399 0.854001 0.813370 0.767487 0.716377 0.660119 0.598840 0.532731 0.462037 0.387071 0.308210 0.225897 0.140644 0.053032 0.036296 0.126628 0.217194 0.307165 0.395664 0.481770 0.564528 0.642958 0.716066 0.782861 0.842365 0.893629 0.935751 0.967891 0.989292 0.999295 0.997359 0.983078 0.956198 0.916635 0.864487 0.800047 0.723814 0.636498 0.539025 0.432538 0.318387 0.198125 0.073491 0.053609 0.181125 0.306897 0.428685 0.544210 0.651198 0.747427 0.830778 0.899285 0.951189 0.984987 0.999490 0.993858 0.967652 0.920867 0.853954 0.767847 0.663962 0.544196 0.410911 0.266895 0.115326 0.040297 0.196223 0.348532 0.493240 0.626394 0.744198 0.843116 0.919998 0.972189 0.997637 0.994987 0.963660 0.903914 0.816881 0.704578 0.569887 0.416511 0.248892 0.072100 0.108302 0.286429 0.456257 0.611832 0.747486 0.858055 0.939091 0.987066 0.999547 0.975344 0.914614 0.818919 0.691233 0.535886 0.358458 0.165603 0.035173 0.235793 0.427924 0.603320 0.754194 0.873574 0.955655 0.996110 0.992353 0.943738 0.851670 0.719625 0.553081 0.359328 0.147199 0.073318 0.291510 0.496475 0.677651 0.825394 0.931510 0.989749 0.996223 0.949708 0.851817 0.707022 0.522526 0.307953 0.074893 0.163679 0.394115 0.602872 0.777318 0.906530 0.982023 0.998358 0.953600 0.849564 0.691841 0.489581 0.255030 0.002841 0.250792 0.489175 0.696202 0.857477 0.961361 0.999872 0.969371 0.870975 0.710640 0.498897 0.250253 0.017749 0.285708 0.533763 0.743071 0.897274 0.983839 0.995154 0.929289 0.790337 0.588277 0.338376 0.060114 0.224270 0.491528 0.719302 0.888035 0.982719 0.994314 0.920725 0.767197 0.546082 0.275963 0.019796 0.315032 0.583059 0.799099 0.942623 0.999406 0.963038 0.835773 0.628571 0.360295 0.056119 0.254752 0.541849 0.776432 0.934424 0.998979 0.962408 0.827233 0.606215 0.321314 0.001639 0.319448 0.607761 0.831961 0.967038 0.997223 0.917977 0.736810 0.472761 0.154580 0.182300 0.499615 0.760635 0.934456 0.999794 0.947738 0.783150 0.524442 0.201705 0.146640 0.478321 0.752346 0.934123 0.999955 0.940303 0.761373 0.484708 0.144816 0.214988 0.548017 0.810267 0.966321 0.994285 0.889069 0.663489 0.346965 0.018110 0.381908 0.693916 0.909995 0.998757 0.946333 0.758770 0.461643 0.096818 0.283284 0.623105 0.872110 0.992421 0.964777 0.791883 0.498507 0.128204 0.262933 0.614687 0.871972 0.993617 0.959155 0.772558 0.462142 0.076582 0.322528 0.670408 0.909645 0.999812 0.924576 0.694940 0.348019 0.058701 0.456648 0.777717 0.965959 0.987585 0.837313 0.539910 0.146484 0.274064 0.646923 0.904742 0.999934 0.913756 0.660349 0.284835 0.144413 0.548012 0.850191 0.993189 0.948541 0.723127 0.358571 0.076076 0.497182 0.822529 0.987520 0.958258 0.738894 0.371582 0.071245 0.500892 0.830083 0.990820 0.948719 0.710787 0.324771 0.130012 0.558716 0.870687 0.998793 0.914213 0.633359 0.215210 0.250674 0.663109
1.000000 1.000000 1.000000 1.000000 1.000000 1.000000 1.000000 1.000000 1.000000 1.000000 1.000000 1.000000 1.000000 1.000000 1.000000 1.000000 1.000000 1.000000 1.000000 1.000000 1.000000 1.000000 1.000000 1.000000 1.000000 1.000000 1.000000 1.000000 1.000000 1.000000 1.000000 1.000000 1.000000 1.000000 1.000000 1.000000 1.000000 1.000000 1.000000 1.000000 1.000000 1.000000 1.000000 1.000000 1.000000 1.000000 1.000000 1.000000 1.000000 1.000000 1.000000 1.000000 0.926279 0.926279 0.926279 0.926279 0.926279 0.926279 0.926279 0.926279 0.926279 0.926279 0.926279 0.926279 0.926279 0.926279 0.926279 0.926279 0.926279 0.926279 0.926279 0.926279 0.926279 0.926279 0.926279 0.926279 0.926279 0.926279 0.926279 0.926279 0.926279 0.926279 0.926279 0.926279 0.926279 0.913345 0.911433 0.912597 0.913783 0.913689 0.913135 0.912770 0.913804 0.915355 0.917370 0.938984 0.942016 0.943181 0.944473 0.945896 0.948330 0.946314 0.954041 0.960668 0.959691 0.960702 0.954531 0.955834 0.955207 0.954482 0.956054 0.956120 0.954505 0.952601 0.951120 0.950618 0.950327 0.953849 0.954394 0.954565 0.955115 0.955048 0.955767 0.956376 0.954478 0.956666 0.948807 0.947603 0.953000 0.951120 0.952666 0.952631 0.953327 0.954104 0.954389 0.954633 0.951554 0.951224 0.950497 0.940841 0.934134 0.932864 0.935316 0.938648 0.936111 0.932439 0.933774 0.936259 0.935497 0.934846 0.925241 0.921400 0.898370 0.886780 0.875071 0.875532 0.878630 0.880930 0.878535 0.870580 0.860883 0.856964 0.857199 0.853071 0.845924 0.862272 0.856691 0.855449 0.859472 0.862468 0.867961 0.864634 0.860244 0.855631 0.851213 0.844720 0.846727 0.851527 0.855542 0.839878 0.831296 0.848501 0.838039 0.829081 0.836553 0.838563 0.835497 0.834348 0.835117 0.833477 0.826813 0.821475 0.824552 0.833646 0.832697 0.821150 0.817648 0.812986 0.812795 0.805676 0.809025 0.809047 0.805334 0.798518 0.814190 0.780706 0.804622 0.803353 0.789298 0.773097 0.761320 0.769890 0.781331 0.784235 0.777595 0.772755 0.771974 0.765964 0.739261 0.742016 0.749421 0.747799 0.735492 0.714611 0.721957 0.727778 0.722579 0.717699 0.720514 0.721666 0.693131 0.706245 0.709969 0.695209 0.710207 0.712460 0.703164 0.703855 0.706226 0.708500 0.700783 0.660562 0.663242 0.660641 0.653863 0.603993 0.604000 0.602490 0.552917 0.556849 0.521058 0.503405 0.503047 0.498880 0.547720 0.512447 0.500633 0.531792 0.459712 0.371466 0.386314 0.384474 0.397394 0.407077 0.383031 0.382413 0.370156 0.347077 0.355983 0.375238 0.390089 0.361376 0.362664 0.355344 0.327634 0.298850 0.312568 0.316355 0.339082 0.341323 0.318481 0.348427 0.385510 0.329103 0.304742 0.288313 0.290063 0.303993 0.309653 0.297756 0.271191 0.263441 0.234370 0.259573 0.251887 0.252026 0.266370 0.298242 0.292200 0.301424 0.320444 0.270616 0.287498 0.290016 0.279594 0.283656 0.290892 0.289368 0.277944 0.293809 0.264354 0.274481 0.254760 0.243646 0.310687 0.290298 0.261178 0.258882 0.265611 0.274542 0.245530 0.197610 0.177159 0.182631 0.118510 0.094946 0.095386 0.091328 0.046930 0.021966 0.004829 -0.033344 -0.033128 -0.030602 0.005040 -0.026710 -0.000618 0.008998 0.008998 0.008998 0.008998 0.008998 0.008998 0.008998 0.008998 0.008998 0.008998 0.008998 0.008998 0.008998 0.008998 0.031809 0.031809 0.031809 0.031809 0.031809 0.031809 0.031809 0.031809 0.031809 0.031809 0.031809 0.031809
0.000000 0.000000 0.000000 0.000000 0.000000 0.000000 0.000000 0.000000 0.000000 0.000000 0.000000 0.000000 0.000000 0.000000 0.000000 0.000000 0.000000 0.000000 0.000000 0.000000 0.000000 0.000000 0.000000 0.000000 0.000000 0.000000 0.000000 0.000000 0.000000 0.000000 0.000000 0.000000 0.000000 0.000000 0.000000 0.000000 0.000000 0.000000 0.000000 0.000000 0.000000 0.000000 0.000000 0.000000 0.000000 0.000000 0.000000 0.000000 0.000000 0.000000 0.000000 0.000000 0.209657 0.209657 0.209657 0.209657 0.209657 0.209657 0.209657 0.209657 0.209657 0.209657 0.209657 0.209657 0.209657 0.209657 0.209657 0.209657 0.209657 0.209657 0.209657 0.209657 0.209657 0.209657 0.209657 0.209657 0.209657 0.209657 0.209657 0.209657 0.209657 0.209657 0.209657 0.209657 0.209657 0.244339 0.244339 0.244339 0.244339 0.244339 0.244339 0.244339 0.244339 0.244339 0.244339 0.244339 0.244339 0.244339 0.244339 0.244339 0.244339 0.244339 0.244339 0.244339 0.244339 0.244339 0.244339 0.244339 0.244339 0.244339 0.260378 0.260378 0.260378 0.260378 0.260378 0.260378 0.260378 0.260378 0.260378 0.260378 0.260378 0.260378 0.260378 0.260378 0.260378 0.260378 0.260378 0.260378 0.260378 0.260378 0.269680 0.269680 0.269680 0.269680 0.269680 0.269680 0.269680 0.269680 0.269680 0.269680 0.269680 0.269680 0.269680 0.269680 0.269680 0.269680 0.269680 0.269680 0.269680 0.269680 0.269680 0.269680 0.269680 0.269680 0.269680 0.269680 0.269680 0.269680 0.269680 0.269680 0.269680 0.269680 0.269680 0.280056 0.280056 0.280056 0.280056 0.280056 0.280056 0.280056 0.280056 0.280056 0.280056 0.280056 0.280056 0.280056 0.280056 0.280056 0.280056 0.280056 0.280056 0.280056 0.280056 0.280056 0.280056 0.280056 0.280056 0.280056 0.280056 0.280056 0.274721 0.274721 0.274721 0.274721 0.274721 0.274721 0.274721 0.274721 0.274721 0.274721 0.274721 0.274721 0.274721 0.285714 0.285714 0.285714 0.285714 0.285714 0.285714 0.285714 0.285714 0.285714 0.285714 0.285714 0.280056 0.280056 0.280056 0.280056 0.280056 0.280056 0.280056 0.280056 0.280056 0.280056 0.280056 0.274721 0.274721 0.274721 0.274721 0.274721 0.274721 0.274721 0.274721 0.274721 0.274721 0.274721 0.280056 0.280056 0.280056 0.280056 0.280056 0.280056 0.280056 0.280056 0.280056 0.280056 0.285714 0.285714 0.285714 0.285714 0.285714 0.285714 0.285714 0.285714 0.285714 0.269680 0.269680 0.269680 0.269680 0.269680 0.269680 0.269680 0.269680 0.269680 0.269680 0.274721 0.274721 0.274721 0.274721 0.274721 0.274721 0.274721 0.274721 0.274721 0.285714 0.285714 0.285714 0.285714 0.285714 0.285714 0.285714 0.285714 0.264906 0.264906 0.264906 0.264906 0.264906 0.264906 0.264906 0.264906 0.264906 0.274721 0.274721 0.274721 0.274721 0.274721 0.274721 0.274721 0.274721 0.269680 0.269680 0.269680 0.269680 0.269680 0.269680 0.269680 0.269680 0.269680 0.269680 0.269680 0.269680 0.269680 0.269680 0.269680 0.269680 0.280056 0.280056 0.280056 0.280056 0.280056 0.280056 0.280056 0.260378 0.260378 0.260378 0.260378 0.260378 0.260378 0.260378 0.260378 0.269680 0.269680 0.269680 0.269680 0.269680 0.269680 0.269680 0.264906 0.264906 0.264906 0.264906 0.264906 0.264906 0.264906 0.264906 0.264906 0.264906 0.264906 0.264906 0.264906 0.264906 0.260378 0.260378 0.260378 0.260378 0.260378 0.260378 0.260378 0.260378 0.260378 0.260378 0.260378 0.260378
