# Output from CTFFind version 4.1.9, run on 2019-11-03 20:07:40
# Input file: stack1_bm3d_averaged_1_6.5_0_1500_half.mrc ; Number of micrographs: 1
# Pixel size: 3.000 Angstroms ; acceleration voltage: 300.0 keV ; spherical aberration: 0.00 mm ; amplitude contrast: 0.07
# Box size: 512 pixels ; min. res.: 30.0 Angstroms ; max. res.: 5.0 Angstroms ; min. def.: 5000.0 um; max. def. 50000.0 um; num. frames averaged: 1
# 6 lines per micrograph: #1 - spatial frequency (1/Angstroms); #2 - 1D rotational average of spectrum (assuming no astigmatism); #3 - 1D rotational average of spectrum; #4 - CTF fit; #5 - cross-correlation between spectrum and CTF fit; #6 - 2sigma of expected cross correlation of noise
0.000000 0.000651 0.001302 0.001953 0.002604 0.003255 0.003906 0.004557 0.005208 0.005859 0.006510 0.007161 0.007812 0.008464 0.009115 0.009766 0.010417 0.011068 0.011719 0.012370 0.013021 0.013672 0.014323 0.014974 0.015625 0.016276 0.016927 0.017578 0.018229 0.018880 0.019531 0.020182 0.020833 0.021484 0.022135 0.022786 0.023438 0.024089 0.024740 0.025391 0.026042 0.026693 0.027344 0.027995 0.028646 0.029297 0.029948 0.030599 0.031250 0.031901 0.032552 0.033203 0.033854 0.034505 0.035156 0.035807 0.036458 0.037109 0.037760 0.038411 0.039062 0.039714 0.040365 0.041016 0.041667 0.042318 0.042969 0.043620 0.044271 0.044922 0.045573 0.046224 0.046875 0.047526 0.048177 0.048828 0.049479 0.050130 0.050781 0.051432 0.052083 0.052734 0.053385 0.054036 0.054688 0.055339 0.055990 0.056641 0.057292 0.057943 0.058594 0.059245 0.059896 0.060547 0.061198 0.061849 0.062500 0.063151 0.063802 0.064453 0.065104 0.065755 0.066406 0.067057 0.067708 0.068359 0.069010 0.069661 0.070312 0.070964 0.071615 0.072266 0.072917 0.073568 0.074219 0.074870 0.075521 0.076172 0.076823 0.077474 0.078125 0.078776 0.079427 0.080078 0.080729 0.081380 0.082031 0.082682 0.083333 0.083984 0.084635 0.085286 0.085938 0.086589 0.087240 0.087891 0.088542 0.089193 0.089844 0.090495 0.091146 0.091797 0.092448 0.093099 0.093750 0.094401 0.095052 0.095703 0.096354 0.097005 0.097656 0.098307 0.098958 0.099609 0.100260 0.100911 0.101562 0.102214 0.102865 0.103516 0.104167 0.104818 0.105469 0.106120 0.106771 0.107422 0.108073 0.108724 0.109375 0.110026 0.110677 0.111328 0.111979 0.112630 0.113281 0.113932 0.114583 0.115234 0.115885 0.116536 0.117188 0.117839 0.118490 0.119141 0.119792 0.120443 0.121094 0.121745 0.122396 0.123047 0.123698 0.124349 0.125000 0.125651 0.126302 0.126953 0.127604 0.128255 0.128906 0.129557 0.130208 0.130859 0.131510 0.132161 0.132812 0.133464 0.134115 0.134766 0.135417 0.136068 0.136719 0.137370 0.138021 0.138672 0.139323 0.139974 0.140625 0.141276 0.141927 0.142578 0.143229 0.143880 0.144531 0.145182 0.145833 0.146484 0.147135 0.147786 0.148438 0.149089 0.149740 0.150391 0.151042 0.151693 0.152344 0.152995 0.153646 0.154297 0.154948 0.155599 0.156250 0.156901 0.157552 0.158203 0.158854 0.159505 0.160156 0.160807 0.161458 0.162109 0.162760 0.163411 0.164062 0.164714 0.165365 0.166016 0.166667 0.167318 0.167969 0.168620 0.169271 0.169922 0.170573 0.171224 0.171875 0.172526 0.173177 0.173828 0.174479 0.175130 0.175781 0.176432 0.177083 0.177734 0.178385 0.179036 0.179688 0.180339 0.180990 0.181641 0.182292 0.182943 0.183594 0.184245 0.184896 0.185547 0.186198 0.186849 0.187500 0.188151 0.188802 0.189453 0.190104 0.190755 0.191406 0.192057 0.192708 0.193359 0.194010 0.194661 0.195312 0.195964 0.196615 0.197266 0.197917 0.198568 0.199219 0.199870 0.200521 0.201172 0.201823 0.202474 0.203125 0.203776 0.204427 0.205078 0.205729 0.206380 0.207031 0.207682 0.208333 0.208984 0.209635 0.210286 0.210938 0.211589 0.212240 0.212891 0.213542 0.214193 0.214844 0.215495 0.216146 0.216797 0.217448 0.218099 0.218750 0.219401 0.220052 0.220703 0.221354 0.222005 0.222656 0.223307 0.223958 0.224609 0.225260 0.225911 0.226562 0.227214 0.227865 0.228516 0.229167 0.229818 0.230469 0.231120 0.231771 0.232422 0.233073 0.233724 0.234375 0.235026 0.235677
       0.34811        0.34811        0.34812        0.34812        0.34811        0.34811        0.34812        0.34812        0.34811        0.34811        0.34812        0.34811        0.34812        0.34812        0.34812        0.34811        0.34812        0.34811        0.34811        0.34811        0.34812        0.34812        0.34812        0.34812        0.34811        0.34812        0.34812        0.34812        0.34811        0.34812        0.34811        0.34811        0.34811        0.34812        0.34811        0.34811        0.34812        0.34811        0.34812        0.34811        0.34812        0.34812        0.34812        0.34811        0.34811        0.34812        0.34812        0.34811        0.34812        0.34812        0.34811        0.35858        0.51314        0.23702        0.08848       -0.00054       -0.27096       -0.11125       -0.16446       -0.22155        0.01285       -0.14162       -0.08197       -0.06101       -0.04376       -0.12700       -0.15862       -0.26283       -0.32591       -0.44042       -0.37523       -0.27432       -0.23475       -0.33334       -0.25065       -0.31989       -0.28554       -0.31154       -0.14481       -0.15314       -0.21688       -0.04619        0.01545       -0.03124        0.07861        0.03250        0.22431        0.24361        0.33926        0.35460        0.39875        0.43730        0.51082        0.57083        0.59049        0.52052        0.49236        0.51184        0.46556        0.53580        0.45696        0.41553        0.41574        0.34944        0.29806        0.30919        0.33756        0.23184        0.19699        0.12393        0.14821        0.16020        0.18539        0.15775        0.22639        0.27700        0.31405        0.29883        0.37839        0.46784        0.40097        0.48965        0.60861        0.57202        0.52973        0.55964        0.59896        0.41992        0.48671        0.39037        0.32063        0.29969        0.28097        0.25623        0.18812        0.18396        0.14757        0.20966        0.26150        0.29104        0.34843        0.30946        0.41432        0.44014        0.46336        0.47819        0.48908        0.52526        0.46911        0.44124        0.41304        0.34278        0.32988        0.30765        0.31889        0.25110        0.24051        0.26237        0.24728        0.27201        0.32775        0.43294        0.44967        0.42561        0.41822        0.48070        0.47249        0.46893        0.46197        0.38076        0.37020        0.40681        0.36938        0.30667        0.29608        0.32589        0.29083        0.30317        0.29872        0.31926        0.35789        0.38384        0.44434        0.46111        0.37107        0.45430        0.42900        0.36389        0.30476        0.35765        0.33116        0.31083        0.32938        0.27703        0.27404        0.32281        0.33918        0.44538        0.41484        0.37298        0.38551        0.42774        0.36239        0.35900        0.33784        0.34066        0.29226        0.28982        0.29779        0.37130        0.37811        0.34174        0.35029        0.40026        0.39723        0.45631        0.40518        0.36037        0.33843        0.34237        0.33007        0.31983        0.34366        0.39249        0.36446        0.36904        0.33165        0.44136        0.36827        0.34982        0.33521        0.37885        0.37707        0.32017        0.32061        0.28889        0.31265        0.33353        0.31360        0.33346        0.34248        0.36095        0.34903        0.33948        0.30360        0.29950        0.28750        0.33761        0.33296        0.35165        0.30924        0.34914        0.35212        0.33947        0.33726        0.30839        0.28532        0.32509        0.32662        0.32810        0.31918        0.31091        0.32414        0.33035        0.33564        0.34245        0.37686        0.34383        0.28308        0.32532        0.32131        0.33097        0.33623        0.28126        0.32519        0.29463        0.32169        0.31283        0.38145        0.33173        0.30753        0.28061        0.29377        0.37597        0.35721        0.32802        0.33353        0.31078        0.31596        0.33437        0.33157        0.28900        0.32157        0.26620        0.27089        0.29463        0.30392        0.30515        0.32069        0.23351        0.29344        0.34388        0.35780        0.35212        0.32620        0.31554        0.30109        0.32029        0.31551        0.25612        0.29560        0.28608        0.32698        0.33169        0.36333        0.35853        0.31826        0.31834        0.34275        0.32908        0.31881        0.33376        0.33813        0.27420        0.29473        0.33199        0.32654        0.24406        0.19890        0.22533        0.28840        0.30561        0.30304        0.26287        0.29377        0.28737        0.24313        0.26364        0.27399        0.22655        0.27197        0.28312        0.25403        0.20530        0.24462        0.32380        0.39828        0.28571        0.24803        0.18800        0.20278        0.29983        0.29883        0.38872        0.23364        0.21341        0.27393        0.35047        0.24700        0.09364       -0.08671       -0.53789       -0.75724
3.375980 3.338540 3.301312 3.264294 3.227487 3.190891 3.154506 3.118332 3.082370 3.046618 3.011077 2.975748 2.940629 2.905721 2.871025 2.836539 2.802265 2.768201 2.734349 2.700707 2.667277 2.634058 2.601049 2.568252 2.535666 2.503291 2.471126 2.439173 2.407431 2.375900 2.344580 2.313471 2.282572 2.251886 2.221410 2.191145 2.161091 2.131248 2.101616 2.072195 2.042985 2.013987 1.985199 1.956622 1.928257 1.900102 1.872158 1.844426 1.816904 1.789594 1.762494 1.675067 2.006814 1.728089 1.112093 1.169375 0.385495 0.925322 0.537299 0.655898 0.942699 0.694645 0.651060 0.778031 0.710495 0.652298 0.492361 0.350298 0.175283 -0.014925 -0.011305 0.086116 0.414207 -0.031180 0.164104 0.040653 0.129854 -0.062791 0.260001 0.190978 0.097502 0.301639 0.490795 0.289389 0.479526 0.388357 0.762714 0.643767 0.873862 0.864354 0.846822 1.065015 0.960498 1.254103 1.159184 1.127585 0.964781 1.013294 0.956084 0.918740 0.951954 0.775596 0.726948 0.657489 0.614074 0.476787 0.566505 0.452204 0.299416 0.197382 0.140765 0.183436 0.231302 0.163603 0.179905 0.345402 0.353073 0.367920 0.463905 0.518605 0.542514 0.410147 0.833778 0.766118 0.694180 0.654051 0.761877 0.523414 0.441131 0.483590 0.197754 0.238388 0.099664 0.176895 -0.022755 -0.028440 -0.102853 -0.102489 0.120093 0.021599 0.135542 0.185058 0.181236 0.324424 0.337127 0.345885 0.341191 0.452771 0.371120 0.282946 0.264309 0.150197 0.119472 0.062069 0.029905 0.007461 -0.080961 -0.068766 -0.053215 -0.076390 -0.048899 0.142230 0.310423 0.190033 0.221860 0.219480 0.443333 0.257727 0.345508 0.292812 0.159740 0.137431 0.300510 0.010886 0.050097 0.037972 0.073203 0.005525 0.093802 -0.012255 0.144686 -0.011226 0.247140 0.312602 0.207698 0.237490 0.228303 0.167070 0.048545 0.081998 0.101354 0.016261 0.010327 0.054440 -0.090374 -0.028837 0.020621 0.122925 0.294227 0.117489 0.122085 0.194849 0.139118 0.099155 0.062821 0.029378 0.049417 -0.071341 -0.023665 0.026021 0.111321 0.100609 0.028225 0.074204 0.176119 0.141028 0.278474 0.094326 0.069403 0.045304 0.018862 0.049001 0.012571 0.077168 0.153321 0.073405 0.071106 0.035494 0.274252 0.044478 0.033996 0.034681 0.101072 0.064573 -0.023760 0.002861 -0.065867 -0.018931 0.026165 -0.000578 -0.002323 -0.001510 0.043815 0.009147 -0.012777 -0.080984 -0.056144 -0.062934 -0.025879 0.017468 -0.007520 -0.018434 0.013875 0.026210 0.008198 0.041824 -0.050157 -0.045224 0.013491 0.000710 0.025813 0.011147 -0.012853 -0.002304 0.018917 0.036543 0.058455 0.147274 -0.027066 -0.044729 0.028454 0.014428 0.032219 0.032564 -0.058457 0.034639 -0.037395 0.029923 0.006882 0.132295 0.003383 -0.044759 -0.059377 -0.022073 0.120445 0.055193 -0.010011 0.031951 -0.008358 -0.000680 0.019247 0.011236 -0.046875 0.025993 -0.106452 -0.075406 -0.029970 -0.027945 -0.041904 -0.054124 -0.207229 0.005245 0.067734 0.020951 0.007724 0.019762 -0.042395 -0.039959 -0.054782 -0.052911 -0.112744 -0.088743 -0.113592 -0.022168 0.010879 0.019899 0.021540 -0.058693 -0.030726 -0.043619 0.001331 -0.073407 -0.003539 -0.002734 -0.108885 -0.045787 -0.001214 -0.026746 -0.101624 -0.226563 -0.109369 0.072065 0.027748 -0.037026 -0.021153 0.038329 -0.076031 0.102539 -0.075741 0.012043 -0.094000 0.045770 0.022811 0.007894 -0.130862 0.023105 0.280798 0.197104 0.046315 0.050937 -0.170156 -0.041385 0.123098 0.075296 0.288990 0.322696 0.365092 0.477523 0.623764 0.422043 0.099703 -0.137412 -1.274693
0.072396 0.072906 0.074437 0.076987 0.080556 0.085144 0.090748 0.097368 0.105002 0.113645 0.123295 0.133947 0.145596 0.158235 0.171856 0.186449 0.202004 0.218505 0.235939 0.254287 0.273528 0.293638 0.314590 0.336354 0.358894 0.382173 0.406146 0.430767 0.455981 0.481732 0.507954 0.534579 0.561530 0.588726 0.616077 0.643487 0.670856 0.698072 0.725020 0.751577 0.777611 0.802986 0.827558 0.851175 0.873682 0.894917 0.914710 0.932892 0.949285 0.963710 0.975987 0.985933 0.993367 0.998107 0.999977 0.998802 0.994417 0.986660 0.975383 0.960448 0.941730 0.919122 0.892534 0.861895 0.827160 0.788306 0.745340 0.698297 0.647244 0.592282 0.533548 0.471215 0.405498 0.336650 0.264964 0.190776 0.114465 0.036449 0.042812 0.122819 0.203037 0.282894 0.361787 0.439086 0.514137 0.586268 0.654795 0.719026 0.778274 0.831858 0.879117 0.919414 0.952149 0.976767 0.992769 0.999720 0.997260 0.985114 0.963100 0.931140 0.889267 0.837629 0.776501 0.706285 0.627514 0.540855 0.447105 0.347194 0.242173 0.133213 0.021590 0.091322 0.204070 0.315137 0.422961 0.525961 0.622553 0.711183 0.790351 0.858638 0.914736 0.957477 0.985858 0.999073 0.996534 0.977896 0.943078 0.892274 0.825972 0.744956 0.650309 0.543406 0.425908 0.299738 0.167062 0.030251 0.108149 0.245466 0.378951 0.505833 0.623378 0.728950 0.820074 0.894503 0.950275 0.985778 0.999800 0.991580 0.960847 0.907851 0.833378 0.738761 0.625869 0.497087 0.355275 0.203719 0.046063 0.113773 0.271684 0.423483 0.565018 0.692282 0.801537 0.889430 0.953112 0.990333 0.999546 0.979971 0.931664 0.855538 0.753383 0.627837 0.482342 0.321071 0.148815 0.029139 0.207168 0.379484 0.540323 0.684142 0.805816 0.900842 0.965505 0.997058 0.993846 0.955412 0.882564 0.777386 0.643213 0.484553 0.306957 0.116846 0.078709 0.272239 0.456153 0.623053 0.766027 0.878950 0.956773 0.995768 0.993729 0.950123 0.866175 0.744870 0.590889 0.410459 0.211130 0.001483 0.209233 0.411487 0.595913 0.753746 0.877252 0.960138 0.997895 0.988082 0.930509 0.827320 0.682968 0.504060 0.299097 0.078096 0.147875 0.367237 0.568496 0.740852 0.874801 0.962679 0.999146 0.981544 0.910129 0.788147 0.621745 0.419707 0.193033 0.045623 0.282651 0.504233 0.697180 0.849714 0.952227 0.997932 0.983350 0.908625 0.777626 0.597804 0.379830 0.137012 0.115489 0.361580 0.585259 0.771668 0.908109 0.984944 0.996340 0.940758 0.821184 0.645047 0.423822 0.172350 0.092119 0.351095 0.586114 0.780080 0.918532 0.990785 0.990801 0.917768 0.776298 0.576221 0.331976 0.061641 0.214387 0.474883 0.699447 0.870115 0.972856 0.998783 0.944996 0.814970 0.618436 0.370732 0.091697 0.195897 0.468146 0.702023 0.877346 0.978568 0.996243 0.927981 0.778831 0.561019 0.293049 0.001811 0.297489 0.567392 0.786815 0.935244 0.998347 0.969440 0.850296 0.651179 0.390066 0.091121 0.217479 0.506167 0.746814 0.915523 0.995062 0.976724 0.861390 0.659654 0.390981 0.081919 0.236442 0.531554 0.772766 0.934541 0.999239 0.959154 0.817554 0.588564 0.295889 0.029524 0.352713 0.638410 0.854930 0.977745 0.992364 0.896178 0.699003 0.422228 0.096628 0.240975 0.551814 0.799662 0.955085 0.999059 0.925422 0.741873 0.469350 0.139764 0.207610 0.530768 0.790059 0.953103 0.998943 0.920887 0.727629 0.442464 0.100634 0.254910 0.578867 0.829352 0.973387 0.991375 0.879917 0.652588 0.338453 0.021471 0.379486 0.687492 0.903493
1.000000 1.000000 1.000000 1.000000 1.000000 1.000000 1.000000 1.000000 1.000000 1.000000 1.000000 1.000000 1.000000 1.000000 1.000000 1.000000 1.000000 1.000000 1.000000 1.000000 1.000000 1.000000 1.000000 1.000000 1.000000 1.000000 1.000000 1.000000 1.000000 1.000000 1.000000 1.000000 1.000000 1.000000 1.000000 1.000000 1.000000 1.000000 1.000000 1.000000 1.000000 1.000000 1.000000 1.000000 1.000000 1.000000 1.000000 1.000000 1.000000 1.000000 1.000000 1.000000 0.826810 0.826810 0.826810 0.814174 0.814174 0.814174 0.814174 0.814174 0.814174 0.814174 0.814174 0.814174 0.814174 0.814174 0.814174 0.814174 0.814174 0.814174 0.814174 0.814174 0.814174 0.814174 0.814174 0.814174 0.814174 0.814174 0.814174 0.814174 0.814174 0.814174 0.814174 0.814174 0.814174 0.814174 0.814174 0.814174 0.814174 0.814174 0.814174 0.814174 0.814174 0.814174 0.814174 0.814174 0.852025 0.859605 0.862438 0.865370 0.866252 0.863790 0.862475 0.862029 0.861919 0.862905 0.869009 0.894037 0.911222 0.914027 0.925458 0.929066 0.934354 0.937394 0.953366 0.954884 0.956483 0.955507 0.956080 0.958108 0.962442 0.958802 0.959918 0.959941 0.964394 0.960456 0.959833 0.958600 0.957383 0.954380 0.955551 0.955304 0.952387 0.952816 0.947408 0.947769 0.948080 0.946163 0.944168 0.931193 0.926146 0.925435 0.925591 0.905709 0.898618 0.888085 0.872608 0.894700 0.888278 0.868906 0.867959 0.844505 0.847163 0.847131 0.838843 0.835269 0.832877 0.828363 0.819513 0.820421 0.819064 0.827965 0.831890 0.833973 0.823853 0.803605 0.779275 0.763507 0.763185 0.761783 0.757897 0.762276 0.763537 0.762321 0.760144 0.758645 0.750060 0.760810 0.761356 0.757202 0.750886 0.749148 0.734479 0.728864 0.722518 0.697884 0.678299 0.666002 0.667548 0.652851 0.644224 0.645672 0.652726 0.659218 0.669066 0.662824 0.659006 0.638614 0.611889 0.569939 0.584786 0.592298 0.566882 0.556870 0.543142 0.580145 0.603115 0.626477 0.643765 0.646134 0.649469 0.624080 0.587625 0.574787 0.577481 0.578126 0.577684 0.570330 0.576291 0.594906 0.577481 0.544379 0.544706 0.541818 0.552168 0.570154 0.569903 0.569058 0.534413 0.517435 0.491560 0.467339 0.416851 0.406135 0.406809 0.417731 0.395446 0.384874 0.390864 0.412248 0.401041 0.403616 0.389567 0.384411 0.357890 0.354084 0.356612 0.339885 0.324366 0.276458 0.244934 0.230856 0.243304 0.247854 0.297490 0.319401 0.318207 0.291428 0.292492 0.329926 0.348843 0.361082 0.364546 0.334910 0.316575 0.213348 0.209892 0.248474 0.272215 0.279439 0.257539 0.252027 0.252583 0.227723 0.215505 0.156393 0.112513 0.079837 0.096356 0.101063 0.095270 0.080687 0.029884 0.024318 0.024037 0.020567 -0.008032 -0.012164 0.010295 0.021569 0.030889 0.049974 0.028218 -0.008356 0.019593 0.015771 0.026108 0.041030 0.014262 0.020363 -0.006130 -0.037969 -0.042400 -0.057048 -0.076525 -0.051857 -0.045655 -0.024677 -0.051896 -0.035916 -0.035872 -0.049275 -0.119845 -0.154895 -0.144622 -0.155938 -0.149644 -0.147964 -0.144197 -0.165059 -0.164040 -0.171257 -0.066008 -0.081370 -0.087109 -0.090464 -0.102870 -0.128044 -0.140340 -0.130623 -0.074544 -0.053740 -0.041871 -0.065804 -0.090478 -0.090478 -0.090478 -0.104370 -0.104370 -0.104370 -0.104370 -0.104370 -0.104370 -0.104370 -0.104370 -0.104370 -0.115523 -0.115523 -0.115523 -0.115523 -0.115523 -0.115523 -0.115523 -0.115523 -0.115523 -0.115523 -0.115523 -0.115523 -0.115523 -0.115523 -0.115523 -0.115523 -0.115523
0.000000 0.000000 0.000000 0.000000 0.000000 0.000000 0.000000 0.000000 0.000000 0.000000 0.000000 0.000000 0.000000 0.000000 0.000000 0.000000 0.000000 0.000000 0.000000 0.000000 0.000000 0.000000 0.000000 0.000000 0.000000 0.000000 0.000000 0.000000 0.000000 0.000000 0.000000 0.000000 0.000000 0.000000 0.000000 0.000000 0.000000 0.000000 0.000000 0.000000 0.000000 0.000000 0.000000 0.000000 0.000000 0.000000 0.000000 0.000000 0.000000 0.000000 0.000000 0.000000 0.180334 0.180334 0.180334 0.199007 0.199007 0.199007 0.199007 0.199007 0.199007 0.199007 0.199007 0.199007 0.199007 0.199007 0.199007 0.199007 0.199007 0.199007 0.199007 0.199007 0.199007 0.199007 0.199007 0.199007 0.199007 0.199007 0.199007 0.199007 0.199007 0.199007 0.199007 0.199007 0.199007 0.199007 0.199007 0.199007 0.199007 0.199007 0.199007 0.199007 0.199007 0.199007 0.199007 0.199007 0.230940 0.230940 0.230940 0.230940 0.230940 0.230940 0.230940 0.230940 0.230940 0.230940 0.230940 0.230940 0.230940 0.230940 0.230940 0.230940 0.230940 0.230940 0.230940 0.230940 0.230940 0.230940 0.230940 0.230940 0.230940 0.230940 0.230940 0.230940 0.244339 0.244339 0.244339 0.244339 0.244339 0.244339 0.244339 0.244339 0.244339 0.244339 0.244339 0.244339 0.244339 0.244339 0.244339 0.244339 0.244339 0.244339 0.244339 0.244339 0.244339 0.244339 0.244339 0.256074 0.256074 0.256074 0.256074 0.256074 0.256074 0.256074 0.256074 0.256074 0.256074 0.256074 0.256074 0.256074 0.256074 0.256074 0.256074 0.256074 0.256074 0.256074 0.256074 0.256074 0.256074 0.256074 0.256074 0.256074 0.256074 0.256074 0.256074 0.256074 0.256074 0.256074 0.256074 0.256074 0.256074 0.256074 0.256074 0.256074 0.264906 0.264906 0.264906 0.264906 0.264906 0.264906 0.264906 0.264906 0.264906 0.264906 0.264906 0.264906 0.264906 0.264906 0.264906 0.264906 0.264906 0.264906 0.264906 0.264906 0.264906 0.264906 0.264906 0.264906 0.264906 0.264906 0.264906 0.264906 0.264906 0.264906 0.264906 0.264906 0.264906 0.264906 0.264906 0.264906 0.264906 0.264906 0.264906 0.264906 0.264906 0.264906 0.264906 0.264906 0.264906 0.264906 0.264906 0.264906 0.264906 0.264906 0.264906 0.264906 0.264906 0.264906 0.264906 0.264906 0.264906 0.264906 0.269680 0.269680 0.269680 0.269680 0.269680 0.269680 0.269680 0.269680 0.269680 0.269680 0.269680 0.269680 0.264906 0.264906 0.264906 0.264906 0.264906 0.264906 0.264906 0.264906 0.264906 0.264906 0.264906 0.264906 0.269680 0.269680 0.269680 0.269680 0.269680 0.269680 0.269680 0.269680 0.269680 0.269680 0.269680 0.264906 0.264906 0.264906 0.264906 0.264906 0.264906 0.264906 0.264906 0.264906 0.264906 0.264906 0.256074 0.256074 0.256074 0.256074 0.256074 0.256074 0.256074 0.256074 0.256074 0.256074 0.256074 0.264906 0.264906 0.264906 0.264906 0.264906 0.264906 0.264906 0.264906 0.264906 0.264906 0.260378 0.260378 0.260378 0.260378 0.260378 0.260378 0.260378 0.260378 0.260378 0.260378 0.264906 0.264906 0.264906 0.264906 0.264906 0.264906 0.264906 0.264906 0.264906 0.260378 0.260378 0.260378 0.260378 0.260378 0.260378 0.260378 0.260378 0.260378 0.256074 0.256074 0.256074 0.256074 0.256074 0.256074 0.256074 0.256074 0.256074 0.251976 0.251976 0.251976 0.251976 0.251976 0.251976 0.251976 0.251976 0.251976 0.251976 0.251976 0.251976 0.251976 0.251976 0.251976 0.251976 0.251976
