# Output from CTFFind version 4.1.9, run on 2019-11-03 19:00:54
# Input file: stack6_bm3d_averaged_1_2.75_0_750_half.mrc ; Number of micrographs: 1
# Pixel size: 3.000 Angstroms ; acceleration voltage: 300.0 keV ; spherical aberration: 0.00 mm ; amplitude contrast: 0.07
# Box size: 512 pixels ; min. res.: 30.0 Angstroms ; max. res.: 5.0 Angstroms ; min. def.: 5000.0 um; max. def. 50000.0 um; num. frames averaged: 1
# 6 lines per micrograph: #1 - spatial frequency (1/Angstroms); #2 - 1D rotational average of spectrum (assuming no astigmatism); #3 - 1D rotational average of spectrum; #4 - CTF fit; #5 - cross-correlation between spectrum and CTF fit; #6 - 2sigma of expected cross correlation of noise
0.000000 0.000651 0.001302 0.001953 0.002604 0.003255 0.003906 0.004557 0.005208 0.005859 0.006510 0.007161 0.007812 0.008464 0.009115 0.009766 0.010417 0.011068 0.011719 0.012370 0.013021 0.013672 0.014323 0.014974 0.015625 0.016276 0.016927 0.017578 0.018229 0.018880 0.019531 0.020182 0.020833 0.021484 0.022135 0.022786 0.023438 0.024089 0.024740 0.025391 0.026042 0.026693 0.027344 0.027995 0.028646 0.029297 0.029948 0.030599 0.031250 0.031901 0.032552 0.033203 0.033854 0.034505 0.035156 0.035807 0.036458 0.037109 0.037760 0.038411 0.039062 0.039714 0.040365 0.041016 0.041667 0.042318 0.042969 0.043620 0.044271 0.044922 0.045573 0.046224 0.046875 0.047526 0.048177 0.048828 0.049479 0.050130 0.050781 0.051432 0.052083 0.052734 0.053385 0.054036 0.054688 0.055339 0.055990 0.056641 0.057292 0.057943 0.058594 0.059245 0.059896 0.060547 0.061198 0.061849 0.062500 0.063151 0.063802 0.064453 0.065104 0.065755 0.066406 0.067057 0.067708 0.068359 0.069010 0.069661 0.070312 0.070964 0.071615 0.072266 0.072917 0.073568 0.074219 0.074870 0.075521 0.076172 0.076823 0.077474 0.078125 0.078776 0.079427 0.080078 0.080729 0.081380 0.082031 0.082682 0.083333 0.083984 0.084635 0.085286 0.085938 0.086589 0.087240 0.087891 0.088542 0.089193 0.089844 0.090495 0.091146 0.091797 0.092448 0.093099 0.093750 0.094401 0.095052 0.095703 0.096354 0.097005 0.097656 0.098307 0.098958 0.099609 0.100260 0.100911 0.101562 0.102214 0.102865 0.103516 0.104167 0.104818 0.105469 0.106120 0.106771 0.107422 0.108073 0.108724 0.109375 0.110026 0.110677 0.111328 0.111979 0.112630 0.113281 0.113932 0.114583 0.115234 0.115885 0.116536 0.117188 0.117839 0.118490 0.119141 0.119792 0.120443 0.121094 0.121745 0.122396 0.123047 0.123698 0.124349 0.125000 0.125651 0.126302 0.126953 0.127604 0.128255 0.128906 0.129557 0.130208 0.130859 0.131510 0.132161 0.132812 0.133464 0.134115 0.134766 0.135417 0.136068 0.136719 0.137370 0.138021 0.138672 0.139323 0.139974 0.140625 0.141276 0.141927 0.142578 0.143229 0.143880 0.144531 0.145182 0.145833 0.146484 0.147135 0.147786 0.148438 0.149089 0.149740 0.150391 0.151042 0.151693 0.152344 0.152995 0.153646 0.154297 0.154948 0.155599 0.156250 0.156901 0.157552 0.158203 0.158854 0.159505 0.160156 0.160807 0.161458 0.162109 0.162760 0.163411 0.164062 0.164714 0.165365 0.166016 0.166667 0.167318 0.167969 0.168620 0.169271 0.169922 0.170573 0.171224 0.171875 0.172526 0.173177 0.173828 0.174479 0.175130 0.175781 0.176432 0.177083 0.177734 0.178385 0.179036 0.179688 0.180339 0.180990 0.181641 0.182292 0.182943 0.183594 0.184245 0.184896 0.185547 0.186198 0.186849 0.187500 0.188151 0.188802 0.189453 0.190104 0.190755 0.191406 0.192057 0.192708 0.193359 0.194010 0.194661 0.195312 0.195964 0.196615 0.197266 0.197917 0.198568 0.199219 0.199870 0.200521 0.201172 0.201823 0.202474 0.203125 0.203776 0.204427 0.205078 0.205729 0.206380 0.207031 0.207682 0.208333 0.208984 0.209635 0.210286 0.210938 0.211589 0.212240 0.212891 0.213542 0.214193 0.214844 0.215495 0.216146 0.216797 0.217448 0.218099 0.218750 0.219401 0.220052 0.220703 0.221354 0.222005 0.222656 0.223307 0.223958 0.224609 0.225260 0.225911 0.226562 0.227214 0.227865 0.228516 0.229167 0.229818 0.230469 0.231120 0.231771 0.232422 0.233073 0.233724 0.234375 0.235026 0.235677
       0.29949        0.29949        0.29949        0.29949        0.29949        0.29949        0.29949        0.29949        0.29949        0.29949        0.29949        0.29949        0.29949        0.29949        0.29949        0.29949        0.29949        0.29949        0.29949        0.29949        0.29949        0.29949        0.29949        0.29949        0.29949        0.29949        0.29949        0.29949        0.29949        0.29949        0.29949        0.29949        0.29949        0.29949        0.29949        0.29949        0.29949        0.29949        0.29949        0.29949        0.29949        0.29949        0.29949        0.29949        0.29949        0.29949        0.29949        0.29949        0.29949        0.29949        0.29949        0.61655        0.77403        0.38101        0.25617        0.15493       -0.12963        0.11843        0.02174        0.03321        0.10427        0.34261        0.39496        0.34496        0.19976       -0.02431        0.02423        0.06081       -0.17326       -0.18189       -0.09060       -0.11922       -0.28818       -0.17978       -0.31340       -0.28409       -0.30033       -0.39112       -0.45840       -0.44825       -0.38354       -0.33010       -0.41417       -0.31859       -0.39207       -0.32974       -0.26481       -0.19992       -0.17378       -0.08720       -0.04929        0.05468        0.09300        0.22359        0.31443        0.37727        0.38203        0.49627        0.56193        0.59252        0.68027        0.65530        0.71997        0.61926        0.65098        0.65828        0.60198        0.59725        0.60902        0.40371        0.36385        0.36013        0.33176        0.18613        0.12137        0.05791        0.07402        0.03036       -0.06619        0.00015       -0.03870       -0.07568        0.04776        0.15382        0.25935        0.32229        0.31456        0.39089        0.50574        0.53757        0.49697        0.65505        0.53258        0.51501        0.56712        0.56946        0.52365        0.48044        0.40542        0.35699        0.22518        0.18494        0.12468        0.13539        0.10836        0.05315        0.07689        0.14497        0.14417        0.15678        0.20736        0.24227        0.33452        0.44686        0.44451        0.45195        0.50357        0.55994        0.54087        0.50184        0.38613        0.40419        0.35897        0.28437        0.23272        0.21058        0.16515        0.18156        0.17752        0.16625        0.13506        0.19997        0.24445        0.34162        0.37918        0.40153        0.46562        0.49128        0.43323        0.44542        0.40628        0.40168        0.40210        0.33950        0.27139        0.26517        0.19910        0.21579        0.21282        0.19133        0.21740        0.22094        0.24996        0.31705        0.37022        0.37243        0.37568        0.38133        0.43158        0.42708        0.41233        0.32276        0.30326        0.27343        0.29110        0.24474        0.20438        0.25949        0.29278        0.27694        0.28293        0.32469        0.30733        0.38231        0.34074        0.34196        0.35646        0.33887        0.31866        0.30351        0.27476        0.28918        0.25641        0.22648        0.25978        0.26055        0.29710        0.30260        0.33714        0.35596        0.31758        0.30862        0.34718        0.32753        0.25505        0.27670        0.28242        0.25617        0.24869        0.28666        0.27401        0.27217        0.30378        0.30094        0.31087        0.31774        0.33337        0.27262        0.28608        0.30977        0.26980        0.25166        0.24562        0.23785        0.24514        0.26362        0.26646        0.27035        0.26697        0.31235        0.34194        0.28635        0.30456        0.24685        0.23900        0.24830        0.23589        0.23008        0.24139        0.29150        0.25106        0.29252        0.28730        0.28349        0.30711        0.25276        0.28349        0.28711        0.28941        0.25517        0.24642        0.22985        0.25000        0.29697        0.28921        0.31349        0.30830        0.31551        0.29018        0.31213        0.26366        0.19330        0.28163        0.27592        0.26018        0.27769        0.30730        0.29579        0.34349        0.27797        0.22579        0.22724        0.24063        0.26263        0.29901        0.28758        0.25512        0.28281        0.26183        0.28548        0.27660        0.25589        0.24574        0.25379        0.28629        0.24716        0.25875        0.29831        0.29081        0.25892        0.27740        0.25912        0.27280        0.21168        0.23200        0.23424        0.27223        0.27711        0.31116        0.25225        0.23447        0.25109        0.22814        0.20107        0.18514        0.22293        0.20636        0.23528        0.23240        0.19543        0.26764        0.24750        0.26974        0.23124        0.17595        0.18727        0.19059        0.14693        0.21543        0.15415        0.17224        0.19231        0.08864        0.24048        0.12282        0.03973        0.15025        0.13132        0.12696        0.17057       -0.15977       -0.53449       -0.89519
2.813820 2.786472 2.759263 2.732193 2.705261 2.678468 2.651813 2.625297 2.598919 2.572680 2.546579 2.520617 2.494794 2.469109 2.443562 2.418154 2.392885 2.367754 2.342762 2.317908 2.293193 2.268617 2.244179 2.219879 2.195718 2.171696 2.147812 2.124067 2.100460 2.076992 2.053662 2.030471 2.007418 1.984504 1.961729 1.939092 1.916593 1.894234 1.872012 1.849930 1.827985 1.806180 1.784513 1.762984 1.741594 1.720343 1.699230 1.678255 1.657420 1.636722 1.616164 1.937716 2.262743 1.673767 1.661150 1.339264 0.864424 1.185341 1.053515 1.083732 0.977734 1.535394 1.489558 1.495083 1.234244 0.917531 0.772057 0.998255 0.713340 0.429312 0.571513 0.651189 0.392604 0.460791 0.285617 0.277297 0.188495 0.167052 -0.074965 -0.017507 0.038375 0.045230 0.025602 0.128176 -0.053868 0.003739 0.110009 0.205895 0.250225 0.291778 0.343793 0.598928 0.473143 0.677787 0.878125 0.911326 0.895569 1.155384 1.136314 1.217267 1.312285 1.189768 1.414935 1.166636 1.157471 1.324285 1.131908 1.069981 1.189309 0.892723 0.706340 0.693429 0.721629 0.441336 0.395419 0.244334 0.223037 0.153961 0.001482 0.133068 0.012130 -0.058307 0.094335 0.216582 0.346237 0.485009 0.497355 0.527850 0.719860 0.781193 0.619975 0.978700 0.822231 0.675396 0.767311 0.748228 0.725587 0.718588 0.470415 0.522888 0.247165 0.199897 0.116463 -0.004668 0.063760 -0.069009 -0.054927 -0.015207 0.087226 -0.051158 0.218712 0.133905 0.202065 0.405393 0.469273 0.457362 0.405525 0.616080 0.625122 0.503477 0.366052 0.348667 0.328491 0.177835 0.113718 0.036001 0.034449 -0.024137 -0.011004 -0.028934 -0.110292 -0.007930 0.018559 0.133070 0.267406 0.234180 0.381859 0.368757 0.388677 0.360815 0.427726 0.363207 0.264650 0.336042 0.130193 0.191060 0.023711 0.066846 0.017141 0.032618 -0.031308 0.033982 0.070997 0.117255 0.233866 0.279382 0.218359 0.255119 0.331199 0.326568 0.339307 0.196239 0.125934 0.131980 0.083956 0.090483 -0.014962 -0.019451 0.112295 0.058828 0.082242 0.096554 0.114796 0.198561 0.219961 0.175378 0.175185 0.192522 0.145532 0.131182 0.075819 0.075847 0.108773 -0.036326 0.034068 0.066020 0.020684 0.140017 0.100950 0.186442 0.187006 0.129098 0.115931 0.194590 0.111325 0.031373 0.082835 0.055211 0.018842 0.050850 0.085575 0.054001 0.044616 0.137065 0.090648 0.110406 0.130821 0.117659 0.090211 0.051280 0.105060 0.046569 0.018320 -0.007475 -0.008958 0.011323 0.020174 0.046162 0.064931 0.003039 0.097832 0.144245 0.008835 0.088430 -0.019897 -0.015113 -0.021937 -0.036810 -0.052021 0.026789 0.044071 -0.052803 0.076863 0.032201 0.042866 0.049223 -0.022936 0.013899 0.071119 -0.020353 0.005566 -0.048501 -0.042546 -0.035601 0.049677 0.044735 0.048255 0.010907 0.109892 0.001477 0.062772 -0.074538 -0.123437 0.028540 -0.019695 -0.014870 -0.034389 0.085054 0.018618 0.064167 -0.035990 -0.138850 -0.067800 -0.093723 0.016952 0.011828 -0.006245 -0.048318 -0.019286 -0.050858 0.002656 -0.032136 -0.053596 -0.060696 -0.092544 0.006300 -0.061579 -0.011476 0.016223 -0.008852 -0.027063 0.034279 -0.001375 0.001047 -0.084742 -0.021711 -0.063254 0.048110 0.076657 0.098564 0.005393 -0.016603 0.045388 -0.004580 -0.101802 0.000990 -0.030026 0.001266 0.038165 0.040499 -0.029119 0.115457 0.083344 0.146163 0.037882 0.016875 0.015612 0.042614 -0.083527 0.103812 -0.075566 0.107968 0.059323 -0.007071 0.359110 0.168026 0.065615 0.273802 0.197199 0.178132 0.382562 -0.234891 -1.330324
0.072396 0.072835 0.074150 0.076342 0.079411 0.083354 0.088173 0.093865 0.100429 0.107862 0.116163 0.125329 0.135355 0.146237 0.157970 0.170547 0.183961 0.198202 0.213261 0.229126 0.245782 0.263215 0.281406 0.300335 0.319980 0.340315 0.361312 0.382940 0.405165 0.427947 0.451245 0.475014 0.499203 0.523759 0.548622 0.573730 0.599014 0.624401 0.649814 0.675169 0.700379 0.725349 0.749981 0.774171 0.797811 0.820786 0.842978 0.864264 0.884515 0.903601 0.921385 0.937729 0.952493 0.965534 0.976705 0.985864 0.992864 0.997561 0.999814 0.999483 0.996435 0.990539 0.981673 0.969723 0.954582 0.936158 0.914367 0.889141 0.860429 0.828193 0.792417 0.753105 0.710280 0.663992 0.614312 0.561339 0.505199 0.446047 0.384065 0.319468 0.252497 0.183429 0.112569 0.040252 0.033155 0.107259 0.181635 0.255835 0.329386 0.401793 0.472543 0.541108 0.606947 0.669512 0.728253 0.782622 0.832078 0.876094 0.914162 0.945800 0.970560 0.988030 0.997847 0.999700 0.993335 0.978568 0.955285 0.923448 0.883106 0.834395 0.777542 0.712869 0.640796 0.561841 0.476620 0.385843 0.290317 0.190936 0.088677 0.015407 0.120197 0.224517 0.327151 0.426849 0.522349 0.612390 0.695731 0.771168 0.837553 0.893816 0.938981 0.972191 0.992718 0.999991 0.993605 0.973342 0.939177 0.891297 0.830101 0.756209 0.670463 0.573921 0.467853 0.353729 0.233203 0.108095 0.019635 0.147915 0.274588 0.397455 0.514310 0.622977 0.721359 0.807476 0.879513 0.935862 0.975158 0.996326 0.998609 0.981601 0.945270 0.889973 0.816472 0.725928 0.619897 0.500313 0.369462 0.229945 0.084631 0.063393 0.210888 0.354529 0.490981 0.616981 0.729415 0.825400 0.902368 0.958141 0.990998 0.999743 0.983750 0.943007 0.878137 0.790408 0.681724 0.554598 0.412105 0.257822 0.095744 0.069806 0.234299 0.393110 0.541654 0.675524 0.790623 0.883301 0.950477 0.989759 0.999537 0.979066 0.928514 0.848998 0.742570 0.612196 0.461681 0.295581 0.119079 0.062181 0.242250 0.415074 0.574707 0.715505 0.832344 0.920822 0.977428 0.999706 0.986379 0.937432 0.854155 0.739138 0.596213 0.430351 0.247510 0.054430 0.141597 0.333001 0.512226 0.672028 0.805780 0.907763 0.973422 0.999597 0.984694 0.928802 0.833737 0.703022 0.541781 0.356567 0.155121 0.053947 0.261497 0.458275 0.635312 0.784353 0.898249 0.971331 0.999708 0.981509 0.917025 0.808761 0.661374 0.481508 0.277529 0.059156 0.162991 0.377886 0.574655 0.743128 0.874382 0.961241 0.998693 0.984213 0.917966 0.802872 0.644518 0.450931 0.232206 0.000002 0.233056 0.454065 0.650546 0.811176 0.926463 0.989321 0.995564 0.944213 0.837636 0.681494 0.484497 0.257943 0.015118 0.229473 0.460952 0.664990 0.828694 0.941463 0.995697 0.987366 0.916348 0.786533 0.605667 0.384956 0.138386 0.118098 0.367628 0.593517 0.780376 0.915193 0.988287 0.994035 0.931371 0.803958 0.620044 0.391996 0.135506 0.131452 0.389853 0.620977 0.807785 0.936201 0.996219 0.982743 0.896069 0.741995 0.531499 0.280023 0.006387 0.268583 0.523635 0.738727 0.896643 0.984404 0.994402 0.925118 0.781384 0.574127 0.319606 0.038202 0.247182 0.512962 0.736832 0.899661 0.987179 0.991291 0.910900 0.752154 0.528054 0.257479 0.036355 0.327844 0.591207 0.802794 0.943242 0.999302 0.965174 0.843184 0.643735 0.384510 0.088991 0.215634 0.500926 0.739867 0.909451 0.992943 0.981629 0.875803 0.684920 0.426852 0.126310 0.187479 0.483558 0.732316 0.908464
1.000000 1.000000 1.000000 1.000000 1.000000 1.000000 1.000000 1.000000 1.000000 1.000000 1.000000 1.000000 1.000000 1.000000 1.000000 1.000000 1.000000 1.000000 1.000000 1.000000 1.000000 1.000000 1.000000 1.000000 1.000000 1.000000 1.000000 1.000000 1.000000 1.000000 1.000000 1.000000 1.000000 1.000000 1.000000 1.000000 1.000000 1.000000 1.000000 1.000000 1.000000 1.000000 1.000000 1.000000 1.000000 1.000000 1.000000 1.000000 1.000000 1.000000 1.000000 1.000000 0.826114 0.826114 0.826114 0.826114 0.826114 0.826114 0.826114 0.804704 0.804704 0.804704 0.804704 0.804704 0.804704 0.804704 0.804704 0.804704 0.804704 0.804704 0.804704 0.804704 0.804704 0.804704 0.804704 0.804704 0.804704 0.804704 0.804704 0.804704 0.804704 0.804704 0.804704 0.804704 0.804704 0.804704 0.804704 0.804704 0.804704 0.804704 0.804704 0.804704 0.804704 0.804704 0.804704 0.804704 0.804704 0.804704 0.804704 0.804704 0.804704 0.804704 0.804704 0.948933 0.949741 0.950072 0.949093 0.947593 0.944054 0.939939 0.939121 0.941548 0.941777 0.941796 0.942797 0.943410 0.945040 0.946075 0.947276 0.948077 0.956114 0.959747 0.959417 0.959104 0.957845 0.967420 0.964497 0.961979 0.962085 0.962272 0.962238 0.962102 0.961981 0.961568 0.961020 0.961623 0.961464 0.960892 0.960013 0.958974 0.958459 0.957829 0.957746 0.958640 0.958753 0.959440 0.960792 0.960773 0.961452 0.960113 0.959303 0.954808 0.952717 0.953431 0.949942 0.950986 0.950708 0.949966 0.948682 0.948748 0.948677 0.947623 0.947507 0.946378 0.940691 0.940641 0.940533 0.941250 0.935108 0.924895 0.921326 0.919585 0.920803 0.924004 0.927519 0.926406 0.925291 0.920992 0.913727 0.907534 0.895928 0.893915 0.891772 0.899652 0.900985 0.902037 0.902358 0.902924 0.901675 0.899728 0.883085 0.887035 0.883721 0.880280 0.875847 0.873317 0.871773 0.873266 0.876067 0.869903 0.856366 0.856847 0.845899 0.815621 0.813526 0.817098 0.826601 0.831856 0.829598 0.828219 0.815444 0.811817 0.798170 0.787706 0.789356 0.792021 0.790130 0.794184 0.798112 0.780845 0.775836 0.770909 0.775666 0.789472 0.799907 0.804899 0.802390 0.797110 0.796041 0.754599 0.752030 0.754860 0.736116 0.740542 0.732290 0.732396 0.737419 0.734977 0.731293 0.734754 0.732153 0.703835 0.710070 0.713990 0.716103 0.717222 0.693811 0.686413 0.647160 0.647527 0.627011 0.637514 0.640626 0.653307 0.642375 0.652270 0.661475 0.658955 0.667732 0.666803 0.653781 0.644666 0.650310 0.656724 0.618286 0.628441 0.627919 0.621186 0.614629 0.615323 0.630003 0.623844 0.602254 0.601013 0.560425 0.525923 0.515001 0.499457 0.487343 0.474290 0.493253 0.503989 0.500228 0.488886 0.463676 0.389420 0.389990 0.389998 0.363947 0.373763 0.366880 0.342320 0.374690 0.369912 0.375290 0.346473 0.329848 0.312941 0.248327 0.226867 0.181007 0.195208 0.196132 0.185420 0.178546 0.179298 0.169489 0.138295 0.146238 0.146316 0.171292 0.152152 0.129268 0.140247 0.143394 0.132419 0.121139 0.116360 0.162354 0.129763 0.137393 0.140696 0.095734 0.065644 0.004740 0.015455 0.025654 0.057592 0.086926 0.074425 0.048019 -0.041880 -0.011348 0.019591 0.019591 0.019591 0.019591 0.019591 0.019591 0.019591 0.019591 0.019591 0.019591 0.019591 -0.044359 -0.044359 -0.044359 -0.044359 -0.044359 -0.044359 -0.044359 -0.044359 -0.044359 -0.044359 -0.044359 -0.044359 -0.044359 -0.044359 -0.044359 -0.044359 -0.044359 -0.044359 -0.044359
0.000000 0.000000 0.000000 0.000000 0.000000 0.000000 0.000000 0.000000 0.000000 0.000000 0.000000 0.000000 0.000000 0.000000 0.000000 0.000000 0.000000 0.000000 0.000000 0.000000 0.000000 0.000000 0.000000 0.000000 0.000000 0.000000 0.000000 0.000000 0.000000 0.000000 0.000000 0.000000 0.000000 0.000000 0.000000 0.000000 0.000000 0.000000 0.000000 0.000000 0.000000 0.000000 0.000000 0.000000 0.000000 0.000000 0.000000 0.000000 0.000000 0.000000 0.000000 0.000000 0.173422 0.173422 0.173422 0.173422 0.173422 0.173422 0.173422 0.191565 0.191565 0.191565 0.191565 0.191565 0.191565 0.191565 0.191565 0.191565 0.191565 0.191565 0.191565 0.191565 0.191565 0.191565 0.191565 0.191565 0.191565 0.191565 0.191565 0.191565 0.191565 0.191565 0.191565 0.191565 0.191565 0.191565 0.191565 0.191565 0.191565 0.191565 0.191565 0.191565 0.191565 0.191565 0.191565 0.191565 0.191565 0.191565 0.191565 0.191565 0.191565 0.191565 0.191565 0.219529 0.219529 0.219529 0.219529 0.219529 0.219529 0.219529 0.219529 0.219529 0.219529 0.219529 0.219529 0.219529 0.219529 0.219529 0.219529 0.219529 0.219529 0.219529 0.219529 0.219529 0.219529 0.219529 0.219529 0.219529 0.219529 0.219529 0.219529 0.219529 0.219529 0.219529 0.237356 0.237356 0.237356 0.237356 0.237356 0.237356 0.237356 0.237356 0.237356 0.237356 0.237356 0.237356 0.237356 0.237356 0.237356 0.237356 0.237356 0.237356 0.237356 0.237356 0.237356 0.237356 0.237356 0.237356 0.244339 0.244339 0.244339 0.244339 0.244339 0.244339 0.244339 0.244339 0.244339 0.244339 0.244339 0.244339 0.244339 0.244339 0.244339 0.244339 0.244339 0.244339 0.244339 0.244339 0.244339 0.248069 0.248069 0.248069 0.248069 0.248069 0.248069 0.248069 0.248069 0.248069 0.248069 0.248069 0.248069 0.248069 0.248069 0.248069 0.248069 0.248069 0.248069 0.248069 0.248069 0.248069 0.248069 0.248069 0.248069 0.248069 0.248069 0.248069 0.248069 0.248069 0.248069 0.248069 0.248069 0.248069 0.248069 0.248069 0.248069 0.248069 0.256074 0.256074 0.256074 0.256074 0.256074 0.256074 0.256074 0.256074 0.256074 0.256074 0.256074 0.256074 0.256074 0.256074 0.256074 0.256074 0.256074 0.256074 0.256074 0.256074 0.256074 0.256074 0.256074 0.256074 0.256074 0.256074 0.256074 0.256074 0.256074 0.256074 0.256074 0.256074 0.256074 0.256074 0.256074 0.256074 0.256074 0.256074 0.256074 0.256074 0.256074 0.256074 0.256074 0.256074 0.256074 0.260378 0.260378 0.260378 0.260378 0.260378 0.260378 0.260378 0.260378 0.260378 0.260378 0.260378 0.260378 0.260378 0.256074 0.256074 0.256074 0.256074 0.256074 0.256074 0.256074 0.256074 0.256074 0.256074 0.256074 0.256074 0.256074 0.260378 0.260378 0.260378 0.260378 0.260378 0.260378 0.260378 0.260378 0.260378 0.260378 0.260378 0.260378 0.251976 0.251976 0.251976 0.251976 0.251976 0.251976 0.251976 0.251976 0.251976 0.251976 0.251976 0.251976 0.256074 0.256074 0.256074 0.256074 0.256074 0.256074 0.256074 0.256074 0.256074 0.256074 0.256074 0.251976 0.251976 0.251976 0.251976 0.251976 0.251976 0.251976 0.251976 0.251976 0.251976 0.251976 0.248069 0.248069 0.248069 0.248069 0.248069 0.248069 0.248069 0.248069 0.248069 0.248069 0.248069 0.256074 0.256074 0.256074 0.256074 0.256074 0.256074 0.256074 0.256074 0.256074 0.256074 0.256074 0.256074 0.256074 0.256074 0.256074 0.256074 0.256074 0.256074 0.256074
