# Output from CTFFind version 4.1.9, run on 2019-11-03 20:10:33
# Input file: stack6_bm3d_averaged_1_5.5_0_3000_half.mrc ; Number of micrographs: 1
# Pixel size: 3.000 Angstroms ; acceleration voltage: 300.0 keV ; spherical aberration: 0.00 mm ; amplitude contrast: 0.07
# Box size: 512 pixels ; min. res.: 30.0 Angstroms ; max. res.: 5.0 Angstroms ; min. def.: 5000.0 um; max. def. 50000.0 um; num. frames averaged: 1
# 6 lines per micrograph: #1 - spatial frequency (1/Angstroms); #2 - 1D rotational average of spectrum (assuming no astigmatism); #3 - 1D rotational average of spectrum; #4 - CTF fit; #5 - cross-correlation between spectrum and CTF fit; #6 - 2sigma of expected cross correlation of noise
0.000000 0.000651 0.001302 0.001953 0.002604 0.003255 0.003906 0.004557 0.005208 0.005859 0.006510 0.007161 0.007812 0.008464 0.009115 0.009766 0.010417 0.011068 0.011719 0.012370 0.013021 0.013672 0.014323 0.014974 0.015625 0.016276 0.016927 0.017578 0.018229 0.018880 0.019531 0.020182 0.020833 0.021484 0.022135 0.022786 0.023438 0.024089 0.024740 0.025391 0.026042 0.026693 0.027344 0.027995 0.028646 0.029297 0.029948 0.030599 0.031250 0.031901 0.032552 0.033203 0.033854 0.034505 0.035156 0.035807 0.036458 0.037109 0.037760 0.038411 0.039062 0.039714 0.040365 0.041016 0.041667 0.042318 0.042969 0.043620 0.044271 0.044922 0.045573 0.046224 0.046875 0.047526 0.048177 0.048828 0.049479 0.050130 0.050781 0.051432 0.052083 0.052734 0.053385 0.054036 0.054688 0.055339 0.055990 0.056641 0.057292 0.057943 0.058594 0.059245 0.059896 0.060547 0.061198 0.061849 0.062500 0.063151 0.063802 0.064453 0.065104 0.065755 0.066406 0.067057 0.067708 0.068359 0.069010 0.069661 0.070312 0.070964 0.071615 0.072266 0.072917 0.073568 0.074219 0.074870 0.075521 0.076172 0.076823 0.077474 0.078125 0.078776 0.079427 0.080078 0.080729 0.081380 0.082031 0.082682 0.083333 0.083984 0.084635 0.085286 0.085938 0.086589 0.087240 0.087891 0.088542 0.089193 0.089844 0.090495 0.091146 0.091797 0.092448 0.093099 0.093750 0.094401 0.095052 0.095703 0.096354 0.097005 0.097656 0.098307 0.098958 0.099609 0.100260 0.100911 0.101562 0.102214 0.102865 0.103516 0.104167 0.104818 0.105469 0.106120 0.106771 0.107422 0.108073 0.108724 0.109375 0.110026 0.110677 0.111328 0.111979 0.112630 0.113281 0.113932 0.114583 0.115234 0.115885 0.116536 0.117188 0.117839 0.118490 0.119141 0.119792 0.120443 0.121094 0.121745 0.122396 0.123047 0.123698 0.124349 0.125000 0.125651 0.126302 0.126953 0.127604 0.128255 0.128906 0.129557 0.130208 0.130859 0.131510 0.132161 0.132812 0.133464 0.134115 0.134766 0.135417 0.136068 0.136719 0.137370 0.138021 0.138672 0.139323 0.139974 0.140625 0.141276 0.141927 0.142578 0.143229 0.143880 0.144531 0.145182 0.145833 0.146484 0.147135 0.147786 0.148438 0.149089 0.149740 0.150391 0.151042 0.151693 0.152344 0.152995 0.153646 0.154297 0.154948 0.155599 0.156250 0.156901 0.157552 0.158203 0.158854 0.159505 0.160156 0.160807 0.161458 0.162109 0.162760 0.163411 0.164062 0.164714 0.165365 0.166016 0.166667 0.167318 0.167969 0.168620 0.169271 0.169922 0.170573 0.171224 0.171875 0.172526 0.173177 0.173828 0.174479 0.175130 0.175781 0.176432 0.177083 0.177734 0.178385 0.179036 0.179688 0.180339 0.180990 0.181641 0.182292 0.182943 0.183594 0.184245 0.184896 0.185547 0.186198 0.186849 0.187500 0.188151 0.188802 0.189453 0.190104 0.190755 0.191406 0.192057 0.192708 0.193359 0.194010 0.194661 0.195312 0.195964 0.196615 0.197266 0.197917 0.198568 0.199219 0.199870 0.200521 0.201172 0.201823 0.202474 0.203125 0.203776 0.204427 0.205078 0.205729 0.206380 0.207031 0.207682 0.208333 0.208984 0.209635 0.210286 0.210938 0.211589 0.212240 0.212891 0.213542 0.214193 0.214844 0.215495 0.216146 0.216797 0.217448 0.218099 0.218750 0.219401 0.220052 0.220703 0.221354 0.222005 0.222656 0.223307 0.223958 0.224609 0.225260 0.225911 0.226562 0.227214 0.227865 0.228516 0.229167 0.229818 0.230469 0.231120 0.231771 0.232422 0.233073 0.233724 0.234375 0.235026 0.235677
       0.30774        0.30774        0.30774        0.30774        0.30774        0.30774        0.30774        0.30774        0.30774        0.30774        0.30774        0.30774        0.30774        0.30774        0.30774        0.30774        0.30774        0.30774        0.30774        0.30774        0.30774        0.30774        0.30774        0.30774        0.30774        0.30774        0.30774        0.30774        0.30774        0.30774        0.30774        0.30774        0.30774        0.30774        0.30774        0.30774        0.30774        0.30774        0.30774        0.30774        0.30774        0.30774        0.30774        0.30774        0.30774        0.30774        0.30774        0.30774        0.30774        0.30774        0.30774        0.59731        0.72261        0.35356        0.18281        0.12470       -0.15102        0.10567        0.02520        0.03011        0.08709        0.30477        0.32593        0.25156        0.14681       -0.04114       -0.01394        0.03893       -0.13359       -0.14261       -0.08811       -0.10673       -0.22830       -0.14939       -0.26863       -0.28137       -0.27979       -0.34498       -0.42304       -0.36390       -0.27261       -0.24343       -0.34253       -0.25463       -0.31162       -0.25102       -0.17483       -0.12338       -0.08706       -0.01591        0.01750        0.11948        0.16295        0.20942        0.33242        0.39762        0.35221        0.46064        0.54735        0.55537        0.63805        0.57651        0.61041        0.59599        0.61039        0.61283        0.55202        0.57036        0.54875        0.38869        0.32602        0.35961        0.34129        0.18831        0.15698        0.12694        0.07893        0.08610       -0.00216        0.05664        0.03467       -0.01093        0.09274        0.15807        0.25557        0.34907        0.33731        0.36642        0.45674        0.49080        0.41935        0.64631        0.53132        0.47829        0.56776        0.49756        0.52842        0.48993        0.36374        0.30326        0.26779        0.21974        0.20509        0.18730        0.16579        0.12006        0.19529        0.18167        0.22344        0.19665        0.26100        0.30459        0.32663        0.44094        0.42746        0.40876        0.43040        0.47241        0.44602        0.43458        0.38489        0.39890        0.33405        0.28258        0.23457        0.24452        0.23592        0.18473        0.15650        0.21209        0.21541        0.26086        0.33299        0.35045        0.40752        0.38852        0.43580        0.45669        0.44811        0.42171        0.38858        0.40701        0.36789        0.32740        0.32653        0.30498        0.25179        0.26976        0.26785        0.22479        0.28775        0.26658        0.27763        0.31313        0.36704        0.40417        0.39650        0.41727        0.37161        0.40463        0.38615        0.29850        0.28051        0.23927        0.25379        0.21675        0.19539        0.28052        0.33489        0.30773        0.27886        0.33604        0.26282        0.32486        0.36971        0.36481        0.36048        0.38022        0.32105        0.33488        0.31717        0.27918        0.27569        0.23919        0.28427        0.29706        0.30722        0.32607        0.36913        0.37172        0.36420        0.32926        0.34823        0.33074        0.31570        0.31284        0.28185        0.28206        0.24992        0.30812        0.32079        0.31141        0.28730        0.32119        0.32474        0.32737        0.33730        0.30860        0.27437        0.28370        0.28298        0.26272        0.24169        0.23057        0.24211        0.25684        0.24166        0.27587        0.27838        0.32074        0.31637        0.26919        0.30019        0.26109        0.20598        0.26061        0.24047        0.22583        0.27160        0.29837        0.28983        0.29447        0.29526        0.29207        0.30161        0.31575        0.27025        0.30385        0.30118        0.34524        0.27387        0.26333        0.25325        0.30389        0.30881        0.31586        0.33379        0.30838        0.22037        0.27743        0.25284        0.23843        0.24124        0.24276        0.28286        0.23840        0.29959        0.30995        0.34165        0.30717        0.28170        0.24330        0.25593        0.26204        0.23546        0.25969        0.27976        0.31145        0.32797        0.29032        0.28630        0.25942        0.29544        0.26684        0.23270        0.19658        0.26966        0.33328        0.30999        0.29958        0.28835        0.23711        0.22416        0.23516        0.22731        0.22648        0.26765        0.27459        0.26059        0.22963        0.21336        0.26560        0.24016        0.24356        0.25626        0.25724        0.17694        0.22087        0.24930        0.23444        0.28855        0.24366        0.23801        0.19227        0.24902        0.28016        0.19304        0.19914        0.12265        0.14607        0.30840        0.16886        0.17785        0.31572        0.19371        0.16387        0.11138        0.21500        0.11939        0.15948       -0.05942       -0.61224       -0.94446
2.335008 2.314792 2.294668 2.274638 2.254701 2.234858 2.215107 2.195449 2.175885 2.156414 2.137036 2.117751 2.098560 2.079461 2.060456 2.041544 2.022725 2.003999 1.985367 1.966827 1.948381 1.930028 1.911768 1.893601 1.875528 1.857547 1.839660 1.821866 1.804165 1.786558 1.769043 1.751622 1.734294 1.717059 1.699917 1.682868 1.665913 1.649051 1.632282 1.615606 1.599023 1.582533 1.566137 1.549834 1.533624 1.517507 1.501483 1.485552 1.469715 1.453971 1.438320 1.801215 2.133020 1.477053 1.350429 1.088673 0.541195 0.922073 0.815813 0.855827 0.717229 1.373168 1.226698 1.236653 0.991835 0.653260 0.505367 0.763845 0.570664 0.245549 0.317103 0.482691 0.226995 0.258860 0.111472 0.014445 -0.014566 -0.010293 -0.294174 -0.177651 -0.016795 -0.053315 -0.105768 -0.017250 -0.142598 -0.118159 0.060316 0.153565 0.219619 0.268105 0.341130 0.590747 0.541824 0.615965 0.829634 0.996205 0.807169 1.187345 1.161200 1.223732 1.328682 1.235029 1.182499 1.337921 1.205844 1.341151 1.160541 1.101280 1.187604 0.952018 0.657499 0.721018 0.775500 0.477531 0.396724 0.344201 0.191017 0.189718 0.040987 0.171532 0.137963 -0.001225 0.107367 0.228985 0.340464 0.602747 0.590517 0.556097 0.719739 0.879943 0.592411 1.027334 0.972278 0.769197 0.901934 0.754013 0.830296 0.852104 0.579617 0.412841 0.376980 0.319217 0.211804 0.160131 0.173335 -0.014661 0.165322 0.133896 0.219628 0.107168 0.278672 0.315779 0.279327 0.487370 0.593459 0.507157 0.407133 0.597566 0.592612 0.489341 0.486654 0.438357 0.318922 0.324284 0.122259 0.172798 0.057049 0.170897 -0.066275 0.041500 0.017312 0.221569 0.102638 0.352849 0.318783 0.370410 0.419075 0.415240 0.596090 0.372329 0.395724 0.448527 0.249099 0.337900 0.184918 0.271119 0.102857 0.146201 0.106632 0.102898 0.044018 0.164786 0.066964 0.155672 0.250857 0.282318 0.347923 0.323709 0.363975 0.276498 0.320267 0.214193 0.122164 0.078449 0.023769 0.039275 -0.052413 -0.025711 0.120226 0.216908 0.091678 0.125398 0.127662 0.069152 0.210257 0.251594 0.224653 0.276057 0.170886 0.162577 0.141359 0.128992 0.082687 -0.026453 0.014711 0.170098 0.019697 0.160253 0.125883 0.264410 0.178570 0.234358 0.196488 0.210957 0.118026 0.141513 0.144005 0.073429 0.018441 0.058027 0.130064 0.153000 0.123785 0.074877 0.157355 0.105249 0.104705 0.131990 0.032252 -0.011924 0.042034 -0.001287 -0.007748 -0.072011 -0.079650 -0.014825 -0.044950 -0.066865 0.010525 0.029622 0.094309 0.056347 -0.033437 0.048244 -0.073953 -0.109005 0.008945 -0.088940 -0.102887 0.037086 0.038123 0.007661 0.061886 -0.061703 0.060776 0.116310 -0.028776 -0.005779 0.092693 0.027280 0.123898 -0.041388 -0.013898 -0.055573 0.121247 0.032453 0.074364 0.121059 0.042368 -0.095113 0.005362 -0.024354 -0.051282 -0.049693 -0.038771 0.018187 -0.079296 0.083264 0.113784 0.162416 0.059768 -0.011279 -0.016087 -0.004602 0.024677 -0.050119 0.042628 0.033699 0.130662 0.125789 0.071646 0.074056 0.031952 0.137364 -0.007256 0.011582 -0.106617 0.102081 0.189636 0.067128 0.133946 0.046564 -0.000103 -0.040780 -0.035102 -0.022926 -0.023305 0.054062 0.090798 0.035917 -0.003692 -0.038596 0.093353 0.065480 0.054686 0.088731 0.052953 -0.016427 0.025425 0.120785 0.061190 0.217187 0.111873 0.072248 0.083687 0.157675 0.216194 0.098664 0.087653 -0.052997 -0.087977 0.492048 0.309226 0.321022 0.598086 0.279475 0.287352 0.120224 0.501576 0.212456 0.333886 -0.095937 -1.676648
0.072396 0.072837 0.074161 0.076366 0.079454 0.083422 0.088270 0.093996 0.100600 0.108079 0.116431 0.125653 0.135740 0.146688 0.158492 0.171145 0.184639 0.198966 0.214115 0.230073 0.246827 0.264362 0.282658 0.301695 0.321451 0.341899 0.363011 0.384755 0.407096 0.429995 0.453409 0.477292 0.501594 0.526258 0.551225 0.576432 0.601808 0.627280 0.652768 0.678188 0.703451 0.728461 0.753118 0.777317 0.800947 0.823893 0.846034 0.867244 0.887396 0.906354 0.923983 0.940142 0.954688 0.967477 0.978362 0.987197 0.993836 0.998134 0.999948 0.999138 0.995569 0.989112 0.979645 0.967054 0.951234 0.932092 0.909549 0.883538 0.854009 0.820931 0.784290 0.744094 0.700373 0.653181 0.602596 0.548725 0.491700 0.431685 0.368870 0.303479 0.235766 0.166013 0.094539 0.021689 0.052161 0.126603 0.201205 0.275507 0.349025 0.421255 0.491675 0.559746 0.624922 0.686649 0.744370 0.797535 0.845601 0.888041 0.924349 0.954050 0.976700 0.991898 0.999294 0.998590 0.989553 0.972016 0.945891 0.911166 0.867919 0.816316 0.756619 0.689186 0.614473 0.533036 0.445532 0.352712 0.255419 0.154588 0.051233 0.053559 0.158637 0.262796 0.364796 0.463368 0.557239 0.645139 0.725829 0.798113 0.860861 0.913028 0.953673 0.981981 0.997280 0.999056 0.986978 0.960902 0.920892 0.867222 0.800391 0.721116 0.630341 0.529226 0.419141 0.301653 0.178505 0.051601 0.077027 0.205247 0.330859 0.451634 0.565353 0.669855 0.763070 0.843072 0.908122 0.956706 0.987582 0.999814 0.992803 0.966318 0.920518 0.855960 0.773612 0.674844 0.561420 0.435472 0.299473 0.156191 0.008642 0.139973 0.286332 0.427063 0.558829 0.678404 0.782760 0.869146 0.935171 0.978878 0.998807 0.994058 0.964336 0.909978 0.831972 0.731957 0.612202 0.475569 0.325456 0.165724 0.000606 0.165401 0.327655 0.481497 0.622385 0.746041 0.848578 0.926638 0.977515 0.999255 0.990750 0.951801 0.883159 0.786528 0.664551 0.520755 0.359465 0.185684 0.004955 0.176806 0.353510 0.519090 0.667716 0.794007 0.893236 0.961524 0.996006 0.994968 0.957951 0.885807 0.780711 0.646120 0.486686 0.308114 0.116975 0.079524 0.273803 0.458198 0.625267 0.768097 0.880605 0.957814 0.996091 0.993340 0.949144 0.864827 0.743455 0.589754 0.409951 0.211552 0.003040 0.206473 0.407632 0.591274 0.748833 0.872768 0.956942 0.996944 0.990356 0.936921 0.838620 0.699638 0.526222 0.326433 0.109796 0.113132 0.331275 0.533571 0.709553 0.849901 0.946952 0.995155 0.991418 0.935340 0.829305 0.678428 0.490354 0.274899 0.043577 0.191009 0.415828 0.618162 0.786324 0.910361 0.982671 0.998507 0.956328 0.857976 0.708642 0.516661 0.293067 0.051016 0.194989 0.429926 0.639203 0.809557 0.929928 0.992213 0.991855 0.928222 0.804747 0.628796 0.411298 0.166089 0.090908 0.342728 0.572446 0.764353 0.905040 0.984376 0.996287 0.939271 0.816616 0.636276 0.410424 0.154664 0.112984 0.373359 0.607500 0.798065 0.930631 0.994831 0.985228 0.901832 0.750222 0.541247 0.290319 0.016312 0.259805 0.516565 0.733690 0.893698 0.983374 0.994909 0.926652 0.783378 0.576037 0.320993 0.038789 0.247467 0.513973 0.738231 0.900954 0.987789 0.990650 0.908537 0.747781 0.521638 0.249287 0.045750 0.337596 0.600273 0.810033 0.947541 0.999731 0.961107 0.834421 0.630572 0.367778 0.070005 0.235160 0.519025 0.754520 0.918796 0.995510 0.976532 0.862897 0.664886 0.401193 0.097258 0.217133 0.510746 0.753987 0.921938 0.996966
1.000000 1.000000 1.000000 1.000000 1.000000 1.000000 1.000000 1.000000 1.000000 1.000000 1.000000 1.000000 1.000000 1.000000 1.000000 1.000000 1.000000 1.000000 1.000000 1.000000 1.000000 1.000000 1.000000 1.000000 1.000000 1.000000 1.000000 1.000000 1.000000 1.000000 1.000000 1.000000 1.000000 1.000000 1.000000 1.000000 1.000000 1.000000 1.000000 1.000000 1.000000 1.000000 1.000000 1.000000 1.000000 1.000000 1.000000 1.000000 1.000000 1.000000 1.000000 1.000000 0.777324 0.777324 0.777324 0.777324 0.777324 0.777324 0.777324 0.762145 0.762145 0.762145 0.762145 0.762145 0.762145 0.762145 0.762145 0.762145 0.762145 0.762145 0.762145 0.762145 0.762145 0.762145 0.762145 0.762145 0.762145 0.762145 0.762145 0.762145 0.762145 0.762145 0.762145 0.762145 0.762145 0.762145 0.762145 0.762145 0.762145 0.762145 0.762145 0.762145 0.762145 0.762145 0.762145 0.762145 0.762145 0.762145 0.762145 0.762145 0.762145 0.762145 0.762145 0.908756 0.909050 0.911780 0.906068 0.907906 0.905581 0.899620 0.902548 0.901700 0.901563 0.902501 0.903764 0.905698 0.910883 0.917427 0.919372 0.927184 0.930631 0.931817 0.931595 0.928663 0.935398 0.932768 0.930651 0.919438 0.922924 0.922368 0.922970 0.921550 0.921938 0.922826 0.923189 0.920760 0.919094 0.916611 0.914834 0.915320 0.914840 0.914792 0.914955 0.914296 0.915342 0.915984 0.911817 0.914361 0.912977 0.909858 0.905951 0.905926 0.907013 0.900477 0.897942 0.887979 0.889928 0.889045 0.892850 0.890178 0.889507 0.890639 0.891434 0.892131 0.891688 0.891781 0.888655 0.890570 0.887106 0.881758 0.878064 0.877838 0.880373 0.886816 0.890123 0.889892 0.886971 0.881438 0.872588 0.870776 0.856781 0.832925 0.833783 0.835962 0.838015 0.838709 0.837567 0.836424 0.833544 0.828531 0.823305 0.828294 0.828415 0.820925 0.806825 0.806683 0.801636 0.809088 0.813268 0.805381 0.807140 0.806352 0.811635 0.812408 0.811068 0.810599 0.804838 0.806683 0.815044 0.815276 0.808293 0.802134 0.797546 0.779106 0.780617 0.785759 0.797546 0.800263 0.793881 0.778359 0.788243 0.784794 0.795144 0.808448 0.808823 0.807312 0.789589 0.748969 0.732799 0.726498 0.729109 0.730699 0.721021 0.718791 0.717872 0.720901 0.685390 0.677710 0.667393 0.664866 0.673636 0.674623 0.678325 0.628000 0.645842 0.643672 0.625539 0.620956 0.582151 0.566336 0.510302 0.515378 0.515901 0.490380 0.478228 0.467113 0.483227 0.495421 0.495644 0.489489 0.466847 0.450221 0.444205 0.448233 0.456514 0.456487 0.463007 0.425679 0.403614 0.403805 0.423170 0.427513 0.425850 0.442315 0.450664 0.452958 0.439483 0.420589 0.415063 0.430332 0.439264 0.447571 0.447713 0.435913 0.414965 0.391798 0.396453 0.436917 0.434819 0.428880 0.411535 0.419262 0.428912 0.415466 0.391061 0.371038 0.410532 0.419099 0.412776 0.371228 0.334306 0.345673 0.342999 0.339235 0.328531 0.366457 0.386808 0.384408 0.390045 0.380972 0.426285 0.503561 0.493999 0.487945 0.505589 0.495300 0.478862 0.460516 0.447186 0.443422 0.432882 0.422512 0.404439 0.398210 0.383910 0.383233 0.401843 0.404222 0.432730 0.416551 0.367417 0.220900 0.269956 0.269956 0.269956 0.269956 0.269956 0.269956 0.269956 0.269956 0.269956 0.269956 0.269956 0.217324 0.217324 0.217324 0.217324 0.217324 0.217324 0.217324 0.217324 0.217324 0.217324 0.217324 0.217324 0.217324 0.217324 0.217324 0.217324 0.217324 0.217324 0.217324 0.217324
0.000000 0.000000 0.000000 0.000000 0.000000 0.000000 0.000000 0.000000 0.000000 0.000000 0.000000 0.000000 0.000000 0.000000 0.000000 0.000000 0.000000 0.000000 0.000000 0.000000 0.000000 0.000000 0.000000 0.000000 0.000000 0.000000 0.000000 0.000000 0.000000 0.000000 0.000000 0.000000 0.000000 0.000000 0.000000 0.000000 0.000000 0.000000 0.000000 0.000000 0.000000 0.000000 0.000000 0.000000 0.000000 0.000000 0.000000 0.000000 0.000000 0.000000 0.000000 0.000000 0.173422 0.173422 0.173422 0.173422 0.173422 0.173422 0.173422 0.191565 0.191565 0.191565 0.191565 0.191565 0.191565 0.191565 0.191565 0.191565 0.191565 0.191565 0.191565 0.191565 0.191565 0.191565 0.191565 0.191565 0.191565 0.191565 0.191565 0.191565 0.191565 0.191565 0.191565 0.191565 0.191565 0.191565 0.191565 0.191565 0.191565 0.191565 0.191565 0.191565 0.191565 0.191565 0.191565 0.191565 0.191565 0.191565 0.191565 0.191565 0.191565 0.191565 0.191565 0.222222 0.222222 0.222222 0.222222 0.222222 0.222222 0.222222 0.222222 0.222222 0.222222 0.222222 0.222222 0.222222 0.222222 0.222222 0.222222 0.222222 0.222222 0.222222 0.222222 0.222222 0.222222 0.222222 0.222222 0.222222 0.222222 0.222222 0.222222 0.222222 0.222222 0.234082 0.234082 0.234082 0.234082 0.234082 0.234082 0.234082 0.234082 0.234082 0.234082 0.234082 0.234082 0.234082 0.234082 0.234082 0.234082 0.234082 0.234082 0.234082 0.234082 0.234082 0.234082 0.234082 0.234082 0.234082 0.244339 0.244339 0.244339 0.244339 0.244339 0.244339 0.244339 0.244339 0.244339 0.244339 0.244339 0.244339 0.244339 0.244339 0.244339 0.244339 0.244339 0.244339 0.244339 0.244339 0.244339 0.248069 0.248069 0.248069 0.248069 0.248069 0.248069 0.248069 0.248069 0.248069 0.248069 0.248069 0.248069 0.248069 0.248069 0.248069 0.248069 0.248069 0.248069 0.248069 0.256074 0.256074 0.256074 0.256074 0.256074 0.256074 0.256074 0.256074 0.256074 0.256074 0.256074 0.256074 0.256074 0.256074 0.256074 0.256074 0.256074 0.256074 0.256074 0.256074 0.256074 0.256074 0.256074 0.256074 0.256074 0.256074 0.256074 0.256074 0.256074 0.256074 0.256074 0.256074 0.256074 0.256074 0.256074 0.256074 0.256074 0.256074 0.256074 0.256074 0.256074 0.256074 0.256074 0.256074 0.256074 0.256074 0.256074 0.256074 0.256074 0.256074 0.256074 0.256074 0.256074 0.256074 0.256074 0.256074 0.256074 0.256074 0.256074 0.256074 0.256074 0.256074 0.260378 0.260378 0.260378 0.260378 0.260378 0.260378 0.260378 0.260378 0.260378 0.260378 0.260378 0.260378 0.260378 0.256074 0.256074 0.256074 0.256074 0.256074 0.256074 0.256074 0.256074 0.256074 0.256074 0.256074 0.256074 0.256074 0.260378 0.260378 0.260378 0.260378 0.260378 0.260378 0.260378 0.260378 0.260378 0.260378 0.260378 0.260378 0.251976 0.251976 0.251976 0.251976 0.251976 0.251976 0.251976 0.251976 0.251976 0.251976 0.251976 0.251976 0.256074 0.256074 0.256074 0.256074 0.256074 0.256074 0.256074 0.256074 0.256074 0.256074 0.256074 0.251976 0.251976 0.251976 0.251976 0.251976 0.251976 0.251976 0.251976 0.251976 0.251976 0.251976 0.248069 0.248069 0.248069 0.248069 0.248069 0.248069 0.248069 0.248069 0.248069 0.248069 0.248069 0.256074 0.256074 0.256074 0.256074 0.256074 0.256074 0.256074 0.256074 0.256074 0.256074 0.256074 0.256074 0.256074 0.256074 0.256074 0.256074 0.256074 0.256074 0.256074 0.256074
