# Output from CTFFind version 4.1.9, run on 2019-11-02 17:46:25
# Input file: stack1_bm3d_averaged_1_0.5_0_1250_half.mrc ; Number of micrographs: 1
# Pixel size: 3.000 Angstroms ; acceleration voltage: 300.0 keV ; spherical aberration: 0.00 mm ; amplitude contrast: 0.07
# Box size: 512 pixels ; min. res.: 30.0 Angstroms ; max. res.: 5.0 Angstroms ; min. def.: 5000.0 um; max. def. 50000.0 um; num. frames averaged: 1
# 6 lines per micrograph: #1 - spatial frequency (1/Angstroms); #2 - 1D rotational average of spectrum (assuming no astigmatism); #3 - 1D rotational average of spectrum; #4 - CTF fit; #5 - cross-correlation between spectrum and CTF fit; #6 - 2sigma of expected cross correlation of noise
0.000000 0.000651 0.001302 0.001953 0.002604 0.003255 0.003906 0.004557 0.005208 0.005859 0.006510 0.007161 0.007812 0.008464 0.009115 0.009766 0.010417 0.011068 0.011719 0.012370 0.013021 0.013672 0.014323 0.014974 0.015625 0.016276 0.016927 0.017578 0.018229 0.018880 0.019531 0.020182 0.020833 0.021484 0.022135 0.022786 0.023438 0.024089 0.024740 0.025391 0.026042 0.026693 0.027344 0.027995 0.028646 0.029297 0.029948 0.030599 0.031250 0.031901 0.032552 0.033203 0.033854 0.034505 0.035156 0.035807 0.036458 0.037109 0.037760 0.038411 0.039062 0.039714 0.040365 0.041016 0.041667 0.042318 0.042969 0.043620 0.044271 0.044922 0.045573 0.046224 0.046875 0.047526 0.048177 0.048828 0.049479 0.050130 0.050781 0.051432 0.052083 0.052734 0.053385 0.054036 0.054688 0.055339 0.055990 0.056641 0.057292 0.057943 0.058594 0.059245 0.059896 0.060547 0.061198 0.061849 0.062500 0.063151 0.063802 0.064453 0.065104 0.065755 0.066406 0.067057 0.067708 0.068359 0.069010 0.069661 0.070312 0.070964 0.071615 0.072266 0.072917 0.073568 0.074219 0.074870 0.075521 0.076172 0.076823 0.077474 0.078125 0.078776 0.079427 0.080078 0.080729 0.081380 0.082031 0.082682 0.083333 0.083984 0.084635 0.085286 0.085938 0.086589 0.087240 0.087891 0.088542 0.089193 0.089844 0.090495 0.091146 0.091797 0.092448 0.093099 0.093750 0.094401 0.095052 0.095703 0.096354 0.097005 0.097656 0.098307 0.098958 0.099609 0.100260 0.100911 0.101562 0.102214 0.102865 0.103516 0.104167 0.104818 0.105469 0.106120 0.106771 0.107422 0.108073 0.108724 0.109375 0.110026 0.110677 0.111328 0.111979 0.112630 0.113281 0.113932 0.114583 0.115234 0.115885 0.116536 0.117188 0.117839 0.118490 0.119141 0.119792 0.120443 0.121094 0.121745 0.122396 0.123047 0.123698 0.124349 0.125000 0.125651 0.126302 0.126953 0.127604 0.128255 0.128906 0.129557 0.130208 0.130859 0.131510 0.132161 0.132812 0.133464 0.134115 0.134766 0.135417 0.136068 0.136719 0.137370 0.138021 0.138672 0.139323 0.139974 0.140625 0.141276 0.141927 0.142578 0.143229 0.143880 0.144531 0.145182 0.145833 0.146484 0.147135 0.147786 0.148438 0.149089 0.149740 0.150391 0.151042 0.151693 0.152344 0.152995 0.153646 0.154297 0.154948 0.155599 0.156250 0.156901 0.157552 0.158203 0.158854 0.159505 0.160156 0.160807 0.161458 0.162109 0.162760 0.163411 0.164062 0.164714 0.165365 0.166016 0.166667 0.167318 0.167969 0.168620 0.169271 0.169922 0.170573 0.171224 0.171875 0.172526 0.173177 0.173828 0.174479 0.175130 0.175781 0.176432 0.177083 0.177734 0.178385 0.179036 0.179688 0.180339 0.180990 0.181641 0.182292 0.182943 0.183594 0.184245 0.184896 0.185547 0.186198 0.186849 0.187500 0.188151 0.188802 0.189453 0.190104 0.190755 0.191406 0.192057 0.192708 0.193359 0.194010 0.194661 0.195312 0.195964 0.196615 0.197266 0.197917 0.198568 0.199219 0.199870 0.200521 0.201172 0.201823 0.202474 0.203125 0.203776 0.204427 0.205078 0.205729 0.206380 0.207031 0.207682 0.208333 0.208984 0.209635 0.210286 0.210938 0.211589 0.212240 0.212891 0.213542 0.214193 0.214844 0.215495 0.216146 0.216797 0.217448 0.218099 0.218750 0.219401 0.220052 0.220703 0.221354 0.222005 0.222656 0.223307 0.223958 0.224609 0.225260 0.225911 0.226562 0.227214 0.227865 0.228516 0.229167 0.229818 0.230469 0.231120 0.231771 0.232422 0.233073 0.233724 0.234375 0.235026 0.235677
       0.33226        0.33226        0.33226        0.33226        0.33226        0.33226        0.33226        0.33226        0.33226        0.33226        0.33226        0.33226        0.33226        0.33226        0.33226        0.33226        0.33226        0.33226        0.33226        0.33226        0.33226        0.33226        0.33226        0.33226        0.33226        0.33226        0.33226        0.33226        0.33226        0.33226        0.33226        0.33226        0.33226        0.33226        0.33226        0.33226        0.33226        0.33226        0.33226        0.33226        0.33226        0.33226        0.33226        0.33226        0.33226        0.33226        0.33226        0.33226        0.33226        0.33226        0.33226        0.50231        0.71918        0.42825        0.18994       -0.08061       -0.26294       -0.06990       -0.13427       -0.05429       -0.00324       -0.14824       -0.09327       -0.05248       -0.00427       -0.15259       -0.22198       -0.34723       -0.46348       -0.55948       -0.51870       -0.44879       -0.37259       -0.54865       -0.45127       -0.62209       -0.50396       -0.47562       -0.39047       -0.38562       -0.34071       -0.25170       -0.16184       -0.13668        0.03215       -0.01269        0.11773        0.16745        0.30391        0.40944        0.46385        0.49793        0.54064        0.55008        0.69161        0.64494        0.67625        0.59142        0.55651        0.65453        0.52801        0.42667        0.38276        0.32009        0.22736        0.26215        0.25036        0.10703        0.08254       -0.00041       -0.00740        0.03524       -0.00463        0.07362        0.09848        0.23072        0.28312        0.30090        0.37943        0.56091        0.53617        0.57724        0.66942        0.70036        0.62970        0.63371        0.63174        0.55408        0.57461        0.39702        0.34398        0.26547        0.18402        0.07112        0.14423        0.11815        0.09062        0.10616        0.20905        0.21331        0.31645        0.35847        0.41253        0.49123        0.58297        0.54139        0.55336        0.60742        0.53787        0.46055        0.47884        0.32361        0.25013        0.25750        0.24186        0.14183        0.14290        0.15039        0.21809        0.24600        0.32886        0.36428        0.39075        0.46750        0.44636        0.47794        0.45417        0.46703        0.44461        0.40591        0.38256        0.35233        0.30997        0.28552        0.20436        0.19654        0.22007        0.26948        0.26758        0.34963        0.37472        0.35703        0.41026        0.45411        0.44651        0.42400        0.43866        0.37087        0.33339        0.28226        0.26313        0.28922        0.26867        0.29367        0.30029        0.34788        0.34195        0.39657        0.40254        0.42532        0.40999        0.42974        0.40278        0.36477        0.28216        0.29090        0.30637        0.27201        0.25498        0.32756        0.36861        0.34142        0.35379        0.35850        0.35380        0.40812        0.40042        0.35945        0.33790        0.30882        0.30887        0.31585        0.31656        0.30024        0.28627        0.33504        0.35830        0.37688        0.33262        0.32948        0.33365        0.34478        0.30608        0.28269        0.30691        0.31488        0.33605        0.32047        0.33112        0.35745        0.32869        0.31195        0.32745        0.30273        0.26420        0.25095        0.26528        0.30691        0.32176        0.35101        0.30145        0.31370        0.33541        0.29225        0.31455        0.28553        0.28099        0.29113        0.29786        0.30865        0.34235        0.32474        0.32915        0.33478        0.31070        0.33234        0.31831        0.31896        0.30834        0.28195        0.29132        0.31144        0.29051        0.32528        0.33698        0.33498        0.31972        0.33950        0.31701        0.27728        0.25307        0.26982        0.33051        0.35739        0.34456        0.31563        0.29358        0.29810        0.31325        0.24733        0.29851        0.30512        0.32939        0.29766        0.31578        0.28607        0.33582        0.34094        0.34348        0.32221        0.29231        0.31480        0.39694        0.32939        0.31145        0.30748        0.28948        0.28451        0.29729        0.26507        0.31087        0.23767        0.27525        0.29649        0.31524        0.29482        0.27280        0.29814        0.23419        0.22388        0.26146        0.30232        0.30457        0.27588        0.28534        0.33152        0.25701        0.21486        0.30835        0.27319        0.25536        0.28317        0.39570        0.29412        0.28533        0.24638        0.25399        0.26744        0.24060        0.23407        0.17147        0.25512        0.23171        0.24872        0.31622        0.27256        0.34863        0.28316        0.24129        0.22683        0.21023        0.23617        0.29985        0.23040        0.13132        0.16433        0.24242        0.24724        0.32747        0.29436        0.02806       -0.43034       -0.90372
2.692241 2.663814 2.635538 2.607415 2.579445 2.551627 2.523961 2.496448 2.469088 2.441880 2.414824 2.387921 2.361171 2.334572 2.308127 2.281834 2.255693 2.229705 2.203869 2.178186 2.152655 2.127277 2.102052 2.076978 2.052058 2.027290 2.002674 1.978211 1.953900 1.929742 1.905736 1.881882 1.858182 1.834633 1.811238 1.787994 1.764903 1.741965 1.719179 1.696546 1.674065 1.651736 1.629560 1.607537 1.585666 1.563948 1.542382 1.520968 1.499707 1.478599 1.457643 1.527759 1.829878 1.513587 1.195161 0.941718 0.545175 0.911506 0.633756 0.874834 0.926970 0.590667 0.710218 0.780885 0.818276 0.630712 0.537346 0.348541 0.104153 0.080580 0.044508 0.084359 0.302459 -0.034489 0.081808 -0.133570 -0.011354 -0.017910 0.084901 0.062185 0.102126 0.177114 0.283019 0.252018 0.483871 0.397925 0.548429 0.527006 0.767796 0.787986 0.880652 0.921909 0.940452 0.944366 1.112354 0.941763 1.139454 0.947559 0.852213 1.016322 0.848678 0.759225 0.616143 0.595198 0.455918 0.416712 0.509607 0.266333 0.198600 0.158973 0.012475 0.207055 -0.003617 0.120580 0.180589 0.259274 0.331975 0.347189 0.423964 0.538584 0.663761 0.539970 0.738798 0.862863 0.639259 0.694959 0.665438 0.594191 0.537869 0.464292 0.297669 0.214256 0.117487 -0.041895 -0.020138 0.058554 -0.097295 -0.057544 0.049250 0.055309 0.112799 0.220969 0.238956 0.307736 0.432958 0.443625 0.437682 0.480243 0.446510 0.327524 0.332593 0.241283 0.052559 0.062985 0.017544 -0.044620 -0.098552 -0.099588 -0.015537 -0.051787 0.072138 0.122612 0.120902 0.262232 0.230533 0.243548 0.290351 0.246333 0.239958 0.212959 0.171904 0.110868 0.102364 0.026274 0.007585 -0.116721 -0.052218 0.001407 0.003621 0.021252 0.098477 0.085170 0.130609 0.190641 0.256314 0.177817 0.182591 0.108725 0.136404 0.021776 -0.031775 0.021957 -0.022865 0.004268 -0.006179 0.035549 0.082306 0.053535 0.152662 0.100174 0.164593 0.063539 0.144278 0.094624 -0.009255 -0.062276 -0.014933 -0.036324 -0.072513 -0.067283 0.053261 0.058117 -0.007609 0.049454 0.060240 0.072976 0.143400 0.065157 0.060977 0.047631 -0.026597 0.022586 0.001543 0.011411 0.002601 -0.007239 0.039871 0.060341 0.068529 0.029453 0.044302 0.019846 0.057180 -0.010796 -0.018211 0.022444 0.008365 0.060282 0.037146 0.042008 0.060809 0.040940 0.017710 0.029845 -0.001256 -0.047766 -0.032482 -0.027561 0.024116 0.038452 0.096655 -0.005222 0.061614 0.049736 -0.009994 0.062177 0.009586 0.008278 0.036088 0.052391 0.036172 0.091599 0.052342 0.069490 0.083714 0.062720 0.063301 0.064161 0.082344 0.031163 -0.008379 0.044088 0.040668 0.044361 0.067010 0.085818 0.011070 0.058248 0.071635 0.004694 0.001364 -0.061539 -0.027286 0.107564 0.077237 0.042830 0.035394 -0.018697 0.047737 0.020816 -0.069338 0.049862 0.032971 0.062537 0.031937 0.007802 0.003137 0.067204 0.035481 0.013934 0.038091 -0.039482 0.063032 0.116189 0.004200 -0.010956 -0.004581 -0.003841 -0.036151 -0.019095 -0.054562 -0.005098 -0.092072 -0.019021 -0.033653 0.025050 -0.035505 -0.053728 0.029692 -0.080636 -0.056411 -0.078565 0.048677 0.010122 0.003886 -0.007055 0.069129 -0.025750 -0.070067 0.056147 -0.005031 0.011059 0.011361 0.201889 -0.022135 0.024854 0.000261 -0.001600 -0.001159 -0.032533 -0.015102 -0.155983 0.019926 -0.036315 -0.011673 0.044156 0.005360 0.119815 -0.002443 -0.016795 -0.043665 -0.031478 -0.065500 0.055353 0.275063 0.155045 0.209902 0.241041 0.330416 0.357561 0.355208 0.035257 -1.057849
0.072396 0.072910 0.074452 0.077022 0.080618 0.085240 0.090887 0.097558 0.105248 0.113957 0.123680 0.134412 0.146148 0.158882 0.172604 0.187306 0.202975 0.219599 0.237160 0.255640 0.275019 0.295272 0.316371 0.338284 0.360978 0.384411 0.408540 0.433315 0.458684 0.484586 0.510957 0.537724 0.564811 0.592133 0.619601 0.647115 0.674573 0.701862 0.728864 0.755453 0.781496 0.806853 0.831378 0.854916 0.877309 0.898392 0.917995 0.935942 0.952055 0.966153 0.978052 0.987568 0.994518 0.998718 0.999990 0.998160 0.993060 0.984531 0.972424 0.956603 0.936944 0.913343 0.885714 0.853991 0.818132 0.778123 0.733976 0.685734 0.633476 0.577310 0.517385 0.453889 0.387047 0.317125 0.244435 0.169326 0.092193 0.013471 0.066363 0.146793 0.227267 0.307197 0.385963 0.462922 0.537405 0.608727 0.676194 0.739107 0.796772 0.848507 0.893648 0.931564 0.961664 0.983403 0.996298 0.999936 0.993981 0.978189 0.952414 0.916615 0.870870 0.815377 0.750460 0.676579 0.594323 0.504420 0.407729 0.305241 0.198067 0.087437 0.025316 0.138767 0.251418 0.361713 0.468060 0.568857 0.662512 0.747473 0.822256 0.885471 0.935857 0.972302 0.993882 0.999878 0.989808 0.963445 0.920835 0.862316 0.788524 0.700397 0.599177 0.486394 0.363866 0.233661 0.098077 0.040390 0.179096 0.315293 0.446181 0.568970 0.680938 0.779497 0.862259 0.927098 0.972214 0.996188 0.998039 0.977267 0.933884 0.868446 0.782058 0.676378 0.553595 0.416403 0.267950 0.111779 0.048249 0.208050 0.363408 0.510097 0.643990 0.761185 0.858124 0.931713 0.979432 0.999435 0.990633 0.952759 0.886416 0.793089 0.675138 0.535760 0.378925 0.209271 0.031989 0.147333 0.322878 0.488786 0.639352 0.769236 0.873654 0.948579 0.990901 0.998590 0.970800 0.907951 0.811763 0.685237 0.532594 0.359159 0.171192 0.024316 0.219896 0.407877 0.580691 0.731186 0.852929 0.940505 0.989777 0.998110 0.964533 0.889844 0.776635 0.629243 0.453617 0.257111 0.048194 0.163895 0.369544 0.559207 0.723854 0.855412 0.947188 0.994237 0.993661 0.944821 0.849439 0.711593 0.537589 0.335706 0.115845 0.110945 0.333002 0.538646 0.716799 0.857610 0.953015 0.997242 0.987195 0.922715 0.806678 0.644921 0.446009 0.220817 0.018027 0.256828 0.481602 0.678893 0.836606 0.944770 0.996214 0.987091 0.917207 0.790152 0.613171 0.396821 0.154381 0.098917 0.346831 0.573138 0.762718 0.902572 0.982779 0.997233 0.944178 0.826445 0.651385 0.430476 0.178637 0.086739 0.346959 0.583341 0.778567 0.917978 0.990733 0.990713 0.917098 0.774578 0.573130 0.327413 0.055746 0.221197 0.481961 0.705956 0.875119 0.975421 0.998091 0.940464 0.806353 0.605900 0.354896 0.073609 0.214791 0.486138 0.717277 0.888072 0.983233 0.993743 0.917811 0.761196 0.536897 0.264147 0.033135 0.328425 0.594918 0.807982 0.947494 0.999803 0.959161 0.828454 0.619129 0.350300 0.047102 0.261603 0.545943 0.777940 0.934294 0.998819 0.964208 0.832968 0.617401 0.338559 0.024303 0.293421 0.581802 0.810565 0.955195 0.999668 0.938334 0.776748 0.531321 0.227789 0.101406 0.420504 0.694300 0.892080 0.991120 0.979430 0.857322 0.637650 0.344598 0.011150 0.324557 0.623547 0.850547 0.978242 0.990653 0.885289 0.673724 0.380493 0.040378 0.305613 0.615156 0.849805 0.979844 0.988169 0.872696 0.646923 0.338529 0.013861 0.365444 0.670875 0.890160 0.993983 0.967762 0.813873 0.551661 0.215196 0.151028 0.497860 0.778129 0.953086 0.997883
1.000000 1.000000 1.000000 1.000000 1.000000 1.000000 1.000000 1.000000 1.000000 1.000000 1.000000 1.000000 1.000000 1.000000 1.000000 1.000000 1.000000 1.000000 1.000000 1.000000 1.000000 1.000000 1.000000 1.000000 1.000000 1.000000 1.000000 1.000000 1.000000 1.000000 1.000000 1.000000 1.000000 1.000000 1.000000 1.000000 1.000000 1.000000 1.000000 1.000000 1.000000 1.000000 1.000000 1.000000 1.000000 1.000000 1.000000 1.000000 1.000000 1.000000 1.000000 1.000000 0.918952 0.918952 0.905213 0.905213 0.905213 0.905213 0.905213 0.905213 0.905213 0.905213 0.905213 0.905213 0.905213 0.905213 0.905213 0.905213 0.905213 0.905213 0.905213 0.905213 0.905213 0.905213 0.905213 0.905213 0.905213 0.905213 0.905213 0.905213 0.905213 0.905213 0.905213 0.905213 0.905213 0.905213 0.905213 0.905213 0.905213 0.905213 0.905213 0.905213 0.905213 0.905213 0.905213 0.901078 0.905946 0.907837 0.906296 0.909846 0.909912 0.909201 0.909532 0.909185 0.909512 0.910905 0.921411 0.932434 0.943682 0.944206 0.949351 0.953754 0.956167 0.957040 0.958596 0.968563 0.967235 0.966738 0.967420 0.968866 0.970991 0.969710 0.969292 0.972462 0.973119 0.971513 0.969284 0.968680 0.968083 0.968187 0.967816 0.967702 0.967574 0.968081 0.968282 0.968436 0.968580 0.968632 0.969649 0.970803 0.973173 0.974153 0.974004 0.972926 0.971044 0.975077 0.975980 0.975717 0.975661 0.975187 0.975450 0.961909 0.957622 0.957538 0.954557 0.953567 0.950669 0.949269 0.947557 0.947782 0.946545 0.946425 0.943062 0.929526 0.915907 0.905038 0.925595 0.910465 0.899358 0.874899 0.875398 0.871472 0.871980 0.864351 0.858565 0.853692 0.850939 0.852329 0.849400 0.853363 0.850293 0.836771 0.839903 0.836564 0.807989 0.791274 0.775289 0.776590 0.773755 0.774839 0.774408 0.770122 0.778503 0.771001 0.769262 0.760941 0.741779 0.708853 0.695285 0.705641 0.715234 0.714031 0.710319 0.695269 0.662634 0.675162 0.695681 0.691607 0.694140 0.685467 0.679687 0.682512 0.683916 0.679509 0.672169 0.671240 0.670755 0.679415 0.683786 0.678925 0.669517 0.655079 0.643067 0.629516 0.644868 0.649393 0.617523 0.611755 0.601213 0.594744 0.581521 0.547774 0.547569 0.525019 0.513991 0.516868 0.519499 0.515414 0.523894 0.525109 0.506551 0.528479 0.536457 0.563262 0.543579 0.541228 0.542632 0.550908 0.534562 0.513390 0.506353 0.507248 0.519385 0.552713 0.594320 0.583126 0.571133 0.557558 0.570892 0.547364 0.556323 0.576448 0.554064 0.480827 0.433838 0.431401 0.392449 0.388750 0.377993 0.372123 0.381194 0.370744 0.359305 0.346000 0.334079 0.278170 0.240158 0.222040 0.198572 0.203619 0.215651 0.200439 0.199361 0.230611 0.277545 0.278001 0.269371 0.253058 0.256903 0.227262 0.242167 0.269722 0.225792 0.219585 0.211898 0.186180 0.178311 0.143424 0.167185 0.086893 0.066695 0.067538 0.083200 0.093928 0.091394 0.096656 0.069786 0.090541 0.084082 0.055176 0.042859 0.059463 0.048365 0.016342 0.027145 0.037370 0.024528 0.011369 0.031697 0.042508 0.055039 0.045976 0.045403 0.101529 0.133686 0.121066 0.121727 0.109287 0.114282 0.089274 0.078603 0.069159 0.058598 0.008971 -0.019282 -0.019282 -0.014559 -0.014559 -0.014559 -0.014559 -0.014559 -0.014559 -0.014559 -0.014559 -0.014559 -0.018305 -0.018305 -0.018305 -0.018305 -0.018305 -0.018305 -0.018305 -0.018305 -0.018305 0.007007 0.007007 0.007007 0.007007 0.007007 0.007007 0.007007 0.007007 0.007007
0.000000 0.000000 0.000000 0.000000 0.000000 0.000000 0.000000 0.000000 0.000000 0.000000 0.000000 0.000000 0.000000 0.000000 0.000000 0.000000 0.000000 0.000000 0.000000 0.000000 0.000000 0.000000 0.000000 0.000000 0.000000 0.000000 0.000000 0.000000 0.000000 0.000000 0.000000 0.000000 0.000000 0.000000 0.000000 0.000000 0.000000 0.000000 0.000000 0.000000 0.000000 0.000000 0.000000 0.000000 0.000000 0.000000 0.000000 0.000000 0.000000 0.000000 0.000000 0.000000 0.181818 0.181818 0.199007 0.199007 0.199007 0.199007 0.199007 0.199007 0.199007 0.199007 0.199007 0.199007 0.199007 0.199007 0.199007 0.199007 0.199007 0.199007 0.199007 0.199007 0.199007 0.199007 0.199007 0.199007 0.199007 0.199007 0.199007 0.199007 0.199007 0.199007 0.199007 0.199007 0.199007 0.199007 0.199007 0.199007 0.199007 0.199007 0.199007 0.199007 0.199007 0.199007 0.199007 0.230940 0.230940 0.230940 0.230940 0.230940 0.230940 0.230940 0.230940 0.230940 0.230940 0.230940 0.230940 0.230940 0.230940 0.230940 0.230940 0.230940 0.230940 0.230940 0.230940 0.230940 0.230940 0.230940 0.230940 0.230940 0.230940 0.230940 0.230940 0.244339 0.244339 0.244339 0.244339 0.244339 0.244339 0.244339 0.244339 0.244339 0.244339 0.244339 0.244339 0.244339 0.244339 0.244339 0.244339 0.244339 0.244339 0.244339 0.244339 0.244339 0.244339 0.244339 0.251976 0.251976 0.251976 0.251976 0.251976 0.251976 0.251976 0.251976 0.251976 0.251976 0.251976 0.251976 0.251976 0.251976 0.251976 0.251976 0.251976 0.251976 0.251976 0.251976 0.264906 0.264906 0.264906 0.264906 0.264906 0.264906 0.264906 0.264906 0.264906 0.264906 0.264906 0.264906 0.264906 0.264906 0.264906 0.264906 0.264906 0.264906 0.264906 0.264906 0.264906 0.264906 0.264906 0.264906 0.264906 0.264906 0.264906 0.264906 0.264906 0.264906 0.264906 0.264906 0.264906 0.264906 0.264906 0.264906 0.264906 0.264906 0.264906 0.264906 0.264906 0.264906 0.264906 0.264906 0.264906 0.264906 0.264906 0.264906 0.264906 0.264906 0.264906 0.264906 0.264906 0.264906 0.264906 0.264906 0.264906 0.264906 0.264906 0.264906 0.264906 0.264906 0.264906 0.264906 0.264906 0.264906 0.264906 0.264906 0.264906 0.264906 0.264906 0.264906 0.264906 0.264906 0.264906 0.269680 0.269680 0.269680 0.269680 0.269680 0.269680 0.269680 0.269680 0.269680 0.269680 0.269680 0.269680 0.264906 0.264906 0.264906 0.264906 0.264906 0.264906 0.264906 0.264906 0.264906 0.264906 0.264906 0.264906 0.269680 0.269680 0.269680 0.269680 0.269680 0.269680 0.269680 0.269680 0.269680 0.269680 0.269680 0.264906 0.264906 0.264906 0.264906 0.264906 0.264906 0.264906 0.264906 0.264906 0.264906 0.264906 0.256074 0.256074 0.256074 0.256074 0.256074 0.256074 0.256074 0.256074 0.256074 0.256074 0.256074 0.264906 0.264906 0.264906 0.264906 0.264906 0.264906 0.264906 0.264906 0.264906 0.264906 0.269680 0.269680 0.269680 0.269680 0.269680 0.269680 0.269680 0.269680 0.269680 0.256074 0.256074 0.256074 0.256074 0.256074 0.256074 0.256074 0.256074 0.256074 0.256074 0.260378 0.260378 0.260378 0.260378 0.260378 0.260378 0.260378 0.260378 0.260378 0.256074 0.256074 0.256074 0.256074 0.256074 0.256074 0.256074 0.256074 0.256074 0.251976 0.251976 0.251976 0.251976 0.251976 0.251976 0.251976 0.251976 0.251976 0.264906 0.264906 0.264906 0.264906 0.264906 0.264906 0.264906 0.264906 0.264906
