# Output from CTFFind version 4.1.9, run on 2019-11-03 19:31:57
# Input file: stack16_bm3d_averaged_1_4.25_0_50_half.mrc ; Number of micrographs: 1
# Pixel size: 3.000 Angstroms ; acceleration voltage: 300.0 keV ; spherical aberration: 0.00 mm ; amplitude contrast: 0.07
# Box size: 512 pixels ; min. res.: 30.0 Angstroms ; max. res.: 5.0 Angstroms ; min. def.: 5000.0 um; max. def. 50000.0 um; num. frames averaged: 1
# 6 lines per micrograph: #1 - spatial frequency (1/Angstroms); #2 - 1D rotational average of spectrum (assuming no astigmatism); #3 - 1D rotational average of spectrum; #4 - CTF fit; #5 - cross-correlation between spectrum and CTF fit; #6 - 2sigma of expected cross correlation of noise
0.000000 0.000651 0.001302 0.001953 0.002604 0.003255 0.003906 0.004557 0.005208 0.005859 0.006510 0.007161 0.007812 0.008464 0.009115 0.009766 0.010417 0.011068 0.011719 0.012370 0.013021 0.013672 0.014323 0.014974 0.015625 0.016276 0.016927 0.017578 0.018229 0.018880 0.019531 0.020182 0.020833 0.021484 0.022135 0.022786 0.023438 0.024089 0.024740 0.025391 0.026042 0.026693 0.027344 0.027995 0.028646 0.029297 0.029948 0.030599 0.031250 0.031901 0.032552 0.033203 0.033854 0.034505 0.035156 0.035807 0.036458 0.037109 0.037760 0.038411 0.039062 0.039714 0.040365 0.041016 0.041667 0.042318 0.042969 0.043620 0.044271 0.044922 0.045573 0.046224 0.046875 0.047526 0.048177 0.048828 0.049479 0.050130 0.050781 0.051432 0.052083 0.052734 0.053385 0.054036 0.054688 0.055339 0.055990 0.056641 0.057292 0.057943 0.058594 0.059245 0.059896 0.060547 0.061198 0.061849 0.062500 0.063151 0.063802 0.064453 0.065104 0.065755 0.066406 0.067057 0.067708 0.068359 0.069010 0.069661 0.070312 0.070964 0.071615 0.072266 0.072917 0.073568 0.074219 0.074870 0.075521 0.076172 0.076823 0.077474 0.078125 0.078776 0.079427 0.080078 0.080729 0.081380 0.082031 0.082682 0.083333 0.083984 0.084635 0.085286 0.085938 0.086589 0.087240 0.087891 0.088542 0.089193 0.089844 0.090495 0.091146 0.091797 0.092448 0.093099 0.093750 0.094401 0.095052 0.095703 0.096354 0.097005 0.097656 0.098307 0.098958 0.099609 0.100260 0.100911 0.101562 0.102214 0.102865 0.103516 0.104167 0.104818 0.105469 0.106120 0.106771 0.107422 0.108073 0.108724 0.109375 0.110026 0.110677 0.111328 0.111979 0.112630 0.113281 0.113932 0.114583 0.115234 0.115885 0.116536 0.117188 0.117839 0.118490 0.119141 0.119792 0.120443 0.121094 0.121745 0.122396 0.123047 0.123698 0.124349 0.125000 0.125651 0.126302 0.126953 0.127604 0.128255 0.128906 0.129557 0.130208 0.130859 0.131510 0.132161 0.132812 0.133464 0.134115 0.134766 0.135417 0.136068 0.136719 0.137370 0.138021 0.138672 0.139323 0.139974 0.140625 0.141276 0.141927 0.142578 0.143229 0.143880 0.144531 0.145182 0.145833 0.146484 0.147135 0.147786 0.148438 0.149089 0.149740 0.150391 0.151042 0.151693 0.152344 0.152995 0.153646 0.154297 0.154948 0.155599 0.156250 0.156901 0.157552 0.158203 0.158854 0.159505 0.160156 0.160807 0.161458 0.162109 0.162760 0.163411 0.164062 0.164714 0.165365 0.166016 0.166667 0.167318 0.167969 0.168620 0.169271 0.169922 0.170573 0.171224 0.171875 0.172526 0.173177 0.173828 0.174479 0.175130 0.175781 0.176432 0.177083 0.177734 0.178385 0.179036 0.179688 0.180339 0.180990 0.181641 0.182292 0.182943 0.183594 0.184245 0.184896 0.185547 0.186198 0.186849 0.187500 0.188151 0.188802 0.189453 0.190104 0.190755 0.191406 0.192057 0.192708 0.193359 0.194010 0.194661 0.195312 0.195964 0.196615 0.197266 0.197917 0.198568 0.199219 0.199870 0.200521 0.201172 0.201823 0.202474 0.203125 0.203776 0.204427 0.205078 0.205729 0.206380 0.207031 0.207682 0.208333 0.208984 0.209635 0.210286 0.210938 0.211589 0.212240 0.212891 0.213542 0.214193 0.214844 0.215495 0.216146 0.216797 0.217448 0.218099 0.218750 0.219401 0.220052 0.220703 0.221354 0.222005 0.222656 0.223307 0.223958 0.224609 0.225260 0.225911 0.226562 0.227214 0.227865 0.228516 0.229167 0.229818 0.230469 0.231120 0.231771 0.232422 0.233073 0.233724 0.234375 0.235026 0.235677
       0.34105        0.34105        0.34105        0.34105        0.34105        0.34105        0.34105        0.34105        0.34105        0.34105        0.34105        0.34105        0.34105        0.34105        0.34105        0.34105        0.34105        0.34105        0.34105        0.34105        0.34105        0.34105        0.34105        0.34105        0.34105        0.34105        0.34105        0.34105        0.34105        0.34105        0.34105        0.34105        0.34105        0.34105        0.34105        0.34105        0.34105        0.34105        0.34105        0.34105        0.34105        0.34105        0.34105        0.34105        0.34105        0.34105        0.34105        0.34105        0.34105        0.34105        0.34105        0.42515        0.56112        0.34791       -0.20453       -0.45293       -0.55128       -0.65150       -0.72120       -0.73550       -0.83504       -0.90261       -0.69674       -0.85577       -0.83403       -0.97982       -1.01795       -0.90097       -0.86027       -0.80989       -0.73061       -0.65760       -0.57042       -0.47808       -0.41018       -0.18159       -0.07522        0.02249        0.24823        0.25141        0.30772        0.36907        0.39922        0.51088        0.53847        0.57287        0.53292        0.47453        0.50827        0.51586        0.43870        0.32478        0.20246        0.17343        0.10512       -0.00714       -0.02257       -0.03037        0.04488        0.00832        0.06383        0.03855        0.15356        0.19060        0.40677        0.45798        0.55302        0.65724        0.68970        0.71764        0.63968        0.61381        0.53445        0.44102        0.38399        0.26697        0.21219        0.20357        0.08906        0.09348        0.08445        0.07582        0.08839        0.30153        0.41165        0.51624        0.53561        0.57549        0.61006        0.58985        0.57993        0.58538        0.56609        0.46824        0.29578        0.25453        0.23971        0.13552        0.08194        0.15068        0.18487        0.27926        0.35033        0.41707        0.47172        0.53276        0.60352        0.54993        0.50696        0.49717        0.35569        0.25807        0.24406        0.16575        0.17319        0.21788        0.26038        0.27192        0.31638        0.42117        0.45042        0.49950        0.45502        0.44796        0.47944        0.38456        0.32378        0.27997        0.24787        0.22278        0.22194        0.23287        0.32955        0.43539        0.42311        0.48956        0.55245        0.44631        0.41101        0.35531        0.30896        0.25826        0.26906        0.26843        0.28588        0.33457        0.34523        0.42296        0.47222        0.43524        0.45632        0.36641        0.37493        0.35113        0.25780        0.24006        0.23663        0.31151        0.36944        0.36493        0.38738        0.43260        0.43390        0.36879        0.33757        0.31673        0.34645        0.30597        0.27736        0.27490        0.33963        0.36284        0.37941        0.39497        0.38071        0.40981        0.39416        0.30989        0.28155        0.31316        0.33944        0.36590        0.36264        0.40666        0.33808        0.36949        0.38794        0.32863        0.34933        0.30866        0.29389        0.33565        0.33272        0.32044        0.34169        0.36375        0.32260        0.33934        0.30894        0.31002        0.28573        0.30952        0.30442        0.32888        0.36782        0.36403        0.34684        0.30018        0.28948        0.28442        0.32446        0.30308        0.31100        0.36372        0.36238        0.33861        0.30587        0.30502        0.30955        0.27063        0.29910        0.30921        0.32452        0.35763        0.33798        0.29649        0.32891        0.32506        0.31210        0.35604        0.34244        0.30843        0.33167        0.28979        0.32003        0.28913        0.30790        0.28974        0.31876        0.36273        0.33256        0.34818        0.30868        0.31936        0.33634        0.33038        0.29922        0.30322        0.34254        0.33009        0.32318        0.31524        0.31057        0.30132        0.30667        0.32188        0.32284        0.33709        0.33633        0.33112        0.28281        0.27391        0.26307        0.26748        0.36401        0.31181        0.35979        0.29955        0.26311        0.27826        0.35774        0.30471        0.28184        0.28874        0.31144        0.28892        0.26501        0.30729        0.27011        0.27361        0.30281        0.32041        0.33424        0.32583        0.30312        0.26514        0.26310        0.25381        0.26409        0.29369        0.35415        0.28765        0.19107        0.29716        0.27568        0.31041        0.23981        0.30675        0.30500        0.32727        0.28417        0.27268        0.26613        0.23238        0.29514        0.33904        0.35402        0.24621        0.27559        0.21884        0.22793        0.21153        0.33874        0.24361        0.20404        0.12295        0.22535        0.28533        0.19754        0.16920        0.07205       -0.55445       -0.74280
3.129510 3.090079 3.050902 3.011981 2.973315 2.934904 2.896748 2.858847 2.821201 2.783810 2.746674 2.709794 2.673168 2.636798 2.600682 2.564822 2.529217 2.493866 2.458771 2.423931 2.389347 2.355017 2.320942 2.287122 2.253557 2.220248 2.187194 2.154394 2.121850 2.089561 2.057526 2.025747 1.994224 1.962955 1.931941 1.901182 1.870678 1.840430 1.810436 1.780698 1.751214 1.721986 1.693013 1.664295 1.635832 1.607624 1.579671 1.551973 1.524531 1.497343 1.470410 1.506459 1.595082 1.535039 0.850807 0.592441 0.449710 0.380548 0.288728 0.207810 0.170137 -0.057093 0.196141 0.059487 -0.039565 -0.117984 -0.243482 -0.153965 -0.067772 -0.094559 -0.084202 0.032130 0.025324 0.219144 0.100698 0.348982 0.458412 0.483569 0.760102 0.687087 0.688035 0.827498 0.799660 0.836044 0.921752 0.861186 0.893751 0.729974 0.800476 0.844642 0.681201 0.603015 0.438627 0.422813 0.347209 0.183641 0.182207 0.114944 0.211261 0.118328 0.213510 0.103558 0.224210 0.232321 0.456142 0.409796 0.587426 0.623892 0.657684 0.728277 0.621718 0.599482 0.465329 0.421942 0.302485 0.269084 0.103071 0.165366 -0.024023 0.034823 -0.034420 -0.041017 -0.043316 0.035854 0.283010 0.302082 0.375773 0.322084 0.401625 0.409411 0.442290 0.419344 0.368013 0.350950 0.135977 0.082643 0.066543 -0.011469 -0.149841 -0.043224 -0.069441 0.044195 0.092856 0.162176 0.233429 0.240336 0.331000 0.427503 0.304885 0.372831 0.252950 0.144030 0.063548 0.045955 0.003543 0.043946 0.072498 0.103173 0.115763 0.188020 0.243555 0.308116 0.289710 0.232750 0.261656 0.234405 0.110013 0.080908 0.046562 0.033832 0.007891 -0.005318 0.037423 0.172711 0.192908 0.194340 0.311996 0.196601 0.209136 0.084934 0.078759 0.002901 -0.006576 0.005056 0.001484 0.043752 0.061257 0.094325 0.160229 0.146072 0.227701 0.128884 0.081281 0.101939 0.044593 -0.061696 -0.027630 0.014792 0.058289 0.070190 0.076308 0.157954 0.127390 0.150612 0.040328 0.057154 0.049342 0.051966 0.026756 -0.017720 0.035339 0.041655 0.085883 0.112098 0.094436 0.109354 0.124680 0.076903 0.009189 -0.000984 0.031202 0.081515 0.063850 0.107629 0.099216 0.048643 0.112389 0.065426 0.039400 0.079665 -0.024937 0.022475 0.060082 0.034749 0.040454 0.052339 0.071600 0.050078 0.056086 0.009433 0.022790 -0.006342 0.040951 0.001692 0.051777 0.072771 0.071711 0.039143 -0.012200 -0.007743 -0.014859 0.032827 0.000436 0.013650 0.071954 0.061209 -0.010406 0.008072 -0.007476 0.008086 -0.042921 -0.009310 -0.002766 0.028310 0.042090 0.018700 -0.017146 0.008013 0.003283 0.000716 0.047860 0.015378 -0.009249 0.044792 -0.039296 -0.016152 -0.043659 -0.011578 -0.039652 0.020440 0.047598 0.004508 0.003301 0.003495 0.007785 0.021909 0.025459 -0.018172 0.001120 0.029767 0.043858 0.015462 0.010931 0.042384 -0.009990 0.003797 0.027676 0.008619 0.071099 0.056408 0.030337 -0.002531 -0.007394 -0.036303 0.006366 0.086694 0.001826 0.080451 -0.012102 -0.024422 -0.018955 0.092674 -0.003220 -0.008834 0.021819 0.041958 0.005656 0.008919 0.028067 0.005102 0.010467 0.033842 0.068426 0.081804 0.056984 0.038384 0.005265 -0.002641 -0.005591 -0.019130 0.010625 0.109844 -0.021444 -0.100327 0.056028 -0.010209 0.045267 -0.054593 0.025006 0.013991 0.022792 -0.003973 -0.015054 -0.017367 -0.075036 0.028194 0.047680 0.071253 -0.113264 0.003464 -0.040451 -0.008966 -0.102201 0.120568 0.015128 0.017717 -0.088806 0.178794 0.251538 0.136183 0.129946 0.075883 -0.703847
0.072396 0.073047 0.074998 0.078250 0.082801 0.088650 0.095794 0.104231 0.113956 0.124965 0.137251 0.150806 0.165619 0.181677 0.198966 0.217467 0.237158 0.258012 0.279999 0.303083 0.327224 0.352375 0.378481 0.405483 0.433311 0.461889 0.491133 0.520947 0.551227 0.581859 0.612719 0.643670 0.674566 0.705249 0.735548 0.765284 0.794263 0.822281 0.849126 0.874572 0.898386 0.920326 0.940144 0.957583 0.972385 0.984288 0.993029 0.998348 0.999990 0.997706 0.991258 0.980423 0.964992 0.944781 0.919628 0.889403 0.854005 0.813375 0.767492 0.716383 0.660125 0.598847 0.532738 0.462045 0.387080 0.308219 0.225907 0.140655 0.053042 0.036285 0.126616 0.217182 0.307153 0.395652 0.481759 0.564517 0.642947 0.716056 0.782852 0.842357 0.893622 0.935745 0.967887 0.989290 0.999295 0.997360 0.983081 0.956204 0.916643 0.864497 0.800059 0.723827 0.636513 0.539043 0.432557 0.318408 0.198147 0.073514 0.053586 0.181102 0.306875 0.428663 0.544189 0.651178 0.747410 0.830763 0.899273 0.951180 0.984983 0.999489 0.993861 0.967660 0.920878 0.853970 0.767867 0.663985 0.544223 0.410941 0.266928 0.115360 0.040263 0.196188 0.348499 0.493208 0.626366 0.744173 0.843096 0.919983 0.972180 0.997634 0.994991 0.963671 0.903931 0.816905 0.704608 0.569923 0.416551 0.248935 0.072145 0.108256 0.286384 0.456214 0.611794 0.747454 0.858030 0.939074 0.987058 0.999548 0.975356 0.914635 0.818950 0.691272 0.535932 0.358510 0.165659 0.035115 0.235737 0.427871 0.603273 0.754154 0.873545 0.955637 0.996104 0.992361 0.943759 0.851704 0.719670 0.553136 0.359392 0.147265 0.073249 0.291444 0.496414 0.677599 0.825354 0.931483 0.989738 0.996230 0.949732 0.851857 0.707078 0.522593 0.308027 0.074971 0.163600 0.394040 0.602807 0.777265 0.906495 0.982007 0.998363 0.953627 0.849611 0.691906 0.489659 0.255117 0.002933 0.250702 0.489093 0.696135 0.857428 0.961335 0.999870 0.969395 0.871024 0.710711 0.498984 0.250350 0.017646 0.285608 0.533674 0.743000 0.897227 0.983819 0.995164 0.929330 0.790404 0.588368 0.338484 0.060229 0.224158 0.491426 0.719220 0.887980 0.982697 0.994327 0.920773 0.767275 0.546184 0.276084 0.019670 0.314913 0.582957 0.799021 0.942580 0.999401 0.963074 0.835847 0.628675 0.360419 0.056256 0.254619 0.541734 0.776343 0.934374 0.998972 0.962447 0.827315 0.606334 0.321455 0.001788 0.319307 0.607640 0.831877 0.966999 0.997235 0.918039 0.736916 0.472902 0.154738 0.182143 0.499476 0.760529 0.934398 0.999790 0.947792 0.783257 0.524588 0.201873 0.146467 0.478166 0.752230 0.934061 0.999953 0.940364 0.761489 0.484868 0.144997 0.214810 0.547864 0.810158 0.966273 0.994305 0.889156 0.663632 0.347147 0.017916 0.381725 0.693773 0.909911 0.998747 0.946399 0.758902 0.461826 0.097023 0.283086 0.622941 0.872007 0.992394 0.964833 0.792013 0.498692 0.128420 0.262724 0.614512 0.871864 0.993592 0.959219 0.772700 0.462345 0.076811 0.322311 0.670239 0.909547 0.999807 0.924666 0.695116 0.348241 0.058458 0.456431 0.777563 0.965896 0.987625 0.837447 0.540122 0.146733 0.273814 0.646731 0.904634 0.999931 0.913862 0.660550 0.285084 0.144156 0.547788 0.850051 0.993158 0.948628 0.723317 0.358828 0.075802 0.496937 0.822368 0.987477 0.958336 0.739084 0.371852 0.070956 0.500641 0.829922 0.990780 0.948813 0.710996 0.325052 0.129717 0.558470 0.870541 0.998778 0.914336 0.633595 0.215508 0.250378 0.662875
1.000000 1.000000 1.000000 1.000000 1.000000 1.000000 1.000000 1.000000 1.000000 1.000000 1.000000 1.000000 1.000000 1.000000 1.000000 1.000000 1.000000 1.000000 1.000000 1.000000 1.000000 1.000000 1.000000 1.000000 1.000000 1.000000 1.000000 1.000000 1.000000 1.000000 1.000000 1.000000 1.000000 1.000000 1.000000 1.000000 1.000000 1.000000 1.000000 1.000000 1.000000 1.000000 1.000000 1.000000 1.000000 1.000000 1.000000 1.000000 1.000000 1.000000 1.000000 1.000000 0.926272 0.926272 0.926272 0.926272 0.926272 0.926272 0.926272 0.926272 0.926272 0.926272 0.926272 0.926272 0.926272 0.926272 0.926272 0.926272 0.926272 0.926272 0.926272 0.926272 0.926272 0.926272 0.926272 0.926272 0.926272 0.926272 0.926272 0.926272 0.926272 0.926272 0.926272 0.926272 0.926272 0.913340 0.911429 0.912593 0.913779 0.913686 0.913131 0.912766 0.913800 0.915351 0.917366 0.938981 0.942012 0.943178 0.944470 0.945893 0.948327 0.946311 0.954037 0.960663 0.959685 0.960696 0.954523 0.955827 0.955199 0.954473 0.956046 0.956113 0.954497 0.952592 0.951111 0.950608 0.950317 0.953840 0.954384 0.954555 0.955105 0.955038 0.955757 0.956365 0.954466 0.956653 0.948791 0.947588 0.952985 0.951104 0.952649 0.952614 0.953310 0.954087 0.954372 0.954616 0.952083 0.951763 0.951042 0.940498 0.934345 0.932817 0.935301 0.938640 0.936140 0.932248 0.933607 0.936122 0.935089 0.934449 0.925273 0.921980 0.899457 0.888747 0.877925 0.878288 0.881156 0.883280 0.880947 0.873448 0.863452 0.859573 0.859468 0.855697 0.848247 0.864477 0.858342 0.857264 0.861285 0.864480 0.869942 0.866901 0.863090 0.858646 0.853984 0.847344 0.849312 0.854069 0.857969 0.842300 0.833744 0.851151 0.840616 0.831839 0.839256 0.841336 0.837314 0.836065 0.836728 0.835508 0.828539 0.822463 0.825598 0.834888 0.834243 0.822092 0.818591 0.813331 0.813143 0.805758 0.808932 0.808961 0.805325 0.797936 0.813075 0.780739 0.802935 0.800268 0.786437 0.770567 0.758299 0.765616 0.777505 0.780340 0.777033 0.766364 0.765705 0.762618 0.738656 0.743386 0.750849 0.749284 0.736857 0.713678 0.720997 0.728665 0.724053 0.718550 0.721596 0.723031 0.691655 0.703818 0.707611 0.696278 0.711245 0.713763 0.704617 0.704823 0.706146 0.706176 0.697015 0.657129 0.659791 0.662600 0.658084 0.605846 0.606349 0.605489 0.561070 0.564092 0.526238 0.507332 0.507018 0.504838 0.554375 0.526600 0.527635 0.557392 0.493159 0.406415 0.420495 0.421189 0.436831 0.446335 0.426553 0.425547 0.414365 0.394856 0.403005 0.416067 0.429764 0.407627 0.404012 0.396887 0.373562 0.344569 0.354715 0.359533 0.382084 0.385175 0.363757 0.396901 0.428121 0.373014 0.349478 0.337056 0.334542 0.347356 0.345753 0.333418 0.307346 0.308327 0.283278 0.309436 0.296319 0.292812 0.299245 0.331320 0.325197 0.332309 0.349081 0.299712 0.318083 0.322733 0.312566 0.312184 0.317710 0.316513 0.305720 0.317475 0.283207 0.283079 0.264786 0.245264 0.309357 0.282169 0.254538 0.250819 0.253437 0.261289 0.231004 0.190734 0.166351 0.175729 0.110833 0.092436 0.092740 0.081398 0.041802 0.017083 0.001621 -0.037401 -0.036863 -0.034450 -0.000891 -0.035450 -0.006167 0.006373 0.006373 0.006373 0.006373 0.006373 0.006373 0.006373 0.006373 0.006373 0.006373 0.006373 0.006373 0.006373 0.006373 0.029076 0.029076 0.029076 0.029076 0.029076 0.029076 0.029076 0.029076 0.029076 0.029076 0.029076 0.029076
0.000000 0.000000 0.000000 0.000000 0.000000 0.000000 0.000000 0.000000 0.000000 0.000000 0.000000 0.000000 0.000000 0.000000 0.000000 0.000000 0.000000 0.000000 0.000000 0.000000 0.000000 0.000000 0.000000 0.000000 0.000000 0.000000 0.000000 0.000000 0.000000 0.000000 0.000000 0.000000 0.000000 0.000000 0.000000 0.000000 0.000000 0.000000 0.000000 0.000000 0.000000 0.000000 0.000000 0.000000 0.000000 0.000000 0.000000 0.000000 0.000000 0.000000 0.000000 0.000000 0.209657 0.209657 0.209657 0.209657 0.209657 0.209657 0.209657 0.209657 0.209657 0.209657 0.209657 0.209657 0.209657 0.209657 0.209657 0.209657 0.209657 0.209657 0.209657 0.209657 0.209657 0.209657 0.209657 0.209657 0.209657 0.209657 0.209657 0.209657 0.209657 0.209657 0.209657 0.209657 0.209657 0.244339 0.244339 0.244339 0.244339 0.244339 0.244339 0.244339 0.244339 0.244339 0.244339 0.244339 0.244339 0.244339 0.244339 0.244339 0.244339 0.244339 0.244339 0.244339 0.244339 0.244339 0.244339 0.244339 0.244339 0.244339 0.260378 0.260378 0.260378 0.260378 0.260378 0.260378 0.260378 0.260378 0.260378 0.260378 0.260378 0.260378 0.260378 0.260378 0.260378 0.260378 0.260378 0.260378 0.260378 0.260378 0.269680 0.269680 0.269680 0.269680 0.269680 0.269680 0.269680 0.269680 0.269680 0.269680 0.269680 0.269680 0.269680 0.269680 0.269680 0.269680 0.269680 0.269680 0.269680 0.269680 0.269680 0.269680 0.269680 0.269680 0.269680 0.269680 0.269680 0.269680 0.269680 0.269680 0.269680 0.269680 0.269680 0.280056 0.280056 0.280056 0.280056 0.280056 0.280056 0.280056 0.280056 0.280056 0.280056 0.280056 0.280056 0.280056 0.280056 0.280056 0.280056 0.280056 0.280056 0.280056 0.280056 0.280056 0.280056 0.280056 0.280056 0.280056 0.280056 0.280056 0.274721 0.274721 0.274721 0.274721 0.274721 0.274721 0.274721 0.274721 0.274721 0.274721 0.274721 0.274721 0.274721 0.285714 0.285714 0.285714 0.285714 0.285714 0.285714 0.285714 0.285714 0.285714 0.285714 0.285714 0.280056 0.280056 0.280056 0.280056 0.280056 0.280056 0.280056 0.280056 0.280056 0.280056 0.280056 0.274721 0.274721 0.274721 0.274721 0.274721 0.274721 0.274721 0.274721 0.274721 0.274721 0.274721 0.280056 0.280056 0.280056 0.280056 0.280056 0.280056 0.280056 0.280056 0.280056 0.280056 0.285714 0.285714 0.285714 0.285714 0.285714 0.285714 0.285714 0.285714 0.285714 0.269680 0.269680 0.269680 0.269680 0.269680 0.269680 0.269680 0.269680 0.269680 0.269680 0.274721 0.274721 0.274721 0.274721 0.274721 0.274721 0.274721 0.274721 0.274721 0.285714 0.285714 0.285714 0.285714 0.285714 0.285714 0.285714 0.285714 0.264906 0.264906 0.264906 0.264906 0.264906 0.264906 0.264906 0.264906 0.264906 0.274721 0.274721 0.274721 0.274721 0.274721 0.274721 0.274721 0.274721 0.269680 0.269680 0.269680 0.269680 0.269680 0.269680 0.269680 0.269680 0.269680 0.269680 0.269680 0.269680 0.269680 0.269680 0.269680 0.269680 0.280056 0.280056 0.280056 0.280056 0.280056 0.280056 0.280056 0.260378 0.260378 0.260378 0.260378 0.260378 0.260378 0.260378 0.260378 0.269680 0.269680 0.269680 0.269680 0.269680 0.269680 0.269680 0.264906 0.264906 0.264906 0.264906 0.264906 0.264906 0.264906 0.264906 0.264906 0.264906 0.264906 0.264906 0.264906 0.264906 0.260378 0.260378 0.260378 0.260378 0.260378 0.260378 0.260378 0.260378 0.260378 0.260378 0.260378 0.260378
