# Output from CTFFind version 4.1.9, run on 2019-11-03 19:39:44
# Input file: stack16_bm3d_averaged_1_4.75_0_750_half.mrc ; Number of micrographs: 1
# Pixel size: 3.000 Angstroms ; acceleration voltage: 300.0 keV ; spherical aberration: 0.00 mm ; amplitude contrast: 0.07
# Box size: 512 pixels ; min. res.: 30.0 Angstroms ; max. res.: 5.0 Angstroms ; min. def.: 5000.0 um; max. def. 50000.0 um; num. frames averaged: 1
# 6 lines per micrograph: #1 - spatial frequency (1/Angstroms); #2 - 1D rotational average of spectrum (assuming no astigmatism); #3 - 1D rotational average of spectrum; #4 - CTF fit; #5 - cross-correlation between spectrum and CTF fit; #6 - 2sigma of expected cross correlation of noise
0.000000 0.000651 0.001302 0.001953 0.002604 0.003255 0.003906 0.004557 0.005208 0.005859 0.006510 0.007161 0.007812 0.008464 0.009115 0.009766 0.010417 0.011068 0.011719 0.012370 0.013021 0.013672 0.014323 0.014974 0.015625 0.016276 0.016927 0.017578 0.018229 0.018880 0.019531 0.020182 0.020833 0.021484 0.022135 0.022786 0.023438 0.024089 0.024740 0.025391 0.026042 0.026693 0.027344 0.027995 0.028646 0.029297 0.029948 0.030599 0.031250 0.031901 0.032552 0.033203 0.033854 0.034505 0.035156 0.035807 0.036458 0.037109 0.037760 0.038411 0.039062 0.039714 0.040365 0.041016 0.041667 0.042318 0.042969 0.043620 0.044271 0.044922 0.045573 0.046224 0.046875 0.047526 0.048177 0.048828 0.049479 0.050130 0.050781 0.051432 0.052083 0.052734 0.053385 0.054036 0.054688 0.055339 0.055990 0.056641 0.057292 0.057943 0.058594 0.059245 0.059896 0.060547 0.061198 0.061849 0.062500 0.063151 0.063802 0.064453 0.065104 0.065755 0.066406 0.067057 0.067708 0.068359 0.069010 0.069661 0.070312 0.070964 0.071615 0.072266 0.072917 0.073568 0.074219 0.074870 0.075521 0.076172 0.076823 0.077474 0.078125 0.078776 0.079427 0.080078 0.080729 0.081380 0.082031 0.082682 0.083333 0.083984 0.084635 0.085286 0.085938 0.086589 0.087240 0.087891 0.088542 0.089193 0.089844 0.090495 0.091146 0.091797 0.092448 0.093099 0.093750 0.094401 0.095052 0.095703 0.096354 0.097005 0.097656 0.098307 0.098958 0.099609 0.100260 0.100911 0.101562 0.102214 0.102865 0.103516 0.104167 0.104818 0.105469 0.106120 0.106771 0.107422 0.108073 0.108724 0.109375 0.110026 0.110677 0.111328 0.111979 0.112630 0.113281 0.113932 0.114583 0.115234 0.115885 0.116536 0.117188 0.117839 0.118490 0.119141 0.119792 0.120443 0.121094 0.121745 0.122396 0.123047 0.123698 0.124349 0.125000 0.125651 0.126302 0.126953 0.127604 0.128255 0.128906 0.129557 0.130208 0.130859 0.131510 0.132161 0.132812 0.133464 0.134115 0.134766 0.135417 0.136068 0.136719 0.137370 0.138021 0.138672 0.139323 0.139974 0.140625 0.141276 0.141927 0.142578 0.143229 0.143880 0.144531 0.145182 0.145833 0.146484 0.147135 0.147786 0.148438 0.149089 0.149740 0.150391 0.151042 0.151693 0.152344 0.152995 0.153646 0.154297 0.154948 0.155599 0.156250 0.156901 0.157552 0.158203 0.158854 0.159505 0.160156 0.160807 0.161458 0.162109 0.162760 0.163411 0.164062 0.164714 0.165365 0.166016 0.166667 0.167318 0.167969 0.168620 0.169271 0.169922 0.170573 0.171224 0.171875 0.172526 0.173177 0.173828 0.174479 0.175130 0.175781 0.176432 0.177083 0.177734 0.178385 0.179036 0.179688 0.180339 0.180990 0.181641 0.182292 0.182943 0.183594 0.184245 0.184896 0.185547 0.186198 0.186849 0.187500 0.188151 0.188802 0.189453 0.190104 0.190755 0.191406 0.192057 0.192708 0.193359 0.194010 0.194661 0.195312 0.195964 0.196615 0.197266 0.197917 0.198568 0.199219 0.199870 0.200521 0.201172 0.201823 0.202474 0.203125 0.203776 0.204427 0.205078 0.205729 0.206380 0.207031 0.207682 0.208333 0.208984 0.209635 0.210286 0.210938 0.211589 0.212240 0.212891 0.213542 0.214193 0.214844 0.215495 0.216146 0.216797 0.217448 0.218099 0.218750 0.219401 0.220052 0.220703 0.221354 0.222005 0.222656 0.223307 0.223958 0.224609 0.225260 0.225911 0.226562 0.227214 0.227865 0.228516 0.229167 0.229818 0.230469 0.231120 0.231771 0.232422 0.233073 0.233724 0.234375 0.235026 0.235677
       0.33496        0.33496        0.33496        0.33496        0.33496        0.33496        0.33496        0.33496        0.33496        0.33496        0.33496        0.33496        0.33496        0.33496        0.33496        0.33496        0.33496        0.33496        0.33496        0.33496        0.33496        0.33496        0.33496        0.33496        0.33496        0.33496        0.33496        0.33496        0.33496        0.33496        0.33496        0.33496        0.33496        0.33496        0.33496        0.33496        0.33496        0.33496        0.33496        0.33496        0.33496        0.33496        0.33496        0.33496        0.33496        0.33496        0.33496        0.33496        0.33496        0.33496        0.33496        0.41974        0.55952        0.34602       -0.20301       -0.45710       -0.55606       -0.65428       -0.72620       -0.74138       -0.84372       -0.90722       -0.70386       -0.86359       -0.84049       -0.98881       -1.02468       -0.90803       -0.86615       -0.81462       -0.73904       -0.66625       -0.57927       -0.48442       -0.41628       -0.18866       -0.08255        0.01147        0.23901        0.24518        0.30227        0.36651        0.39315        0.50206        0.53424        0.56956        0.53118        0.47129        0.50760        0.50734        0.42879        0.32090        0.19615        0.16910        0.10129       -0.01814       -0.03237       -0.03942        0.03635       -0.00108        0.05538        0.03193        0.14633        0.18564        0.39993        0.45571        0.55081        0.65618        0.69049        0.71360        0.63462        0.61158        0.52863        0.43475        0.37833        0.26042        0.20511        0.19520        0.08308        0.08359        0.06989        0.06791        0.08350        0.29657        0.40608        0.50930        0.53363        0.57441        0.61035        0.58767        0.57875        0.58206        0.56194        0.46206        0.28891        0.24921        0.22973        0.12667        0.07508        0.14141        0.17053        0.26935        0.34630        0.41185        0.46746        0.52869        0.60019        0.54779        0.50718        0.48907        0.35177        0.24684        0.23691        0.16183        0.15934        0.20445        0.25115        0.26799        0.31005        0.41535        0.44332        0.49949        0.45284        0.44411        0.47180        0.37561        0.31868        0.27442        0.23961        0.21562        0.21889        0.22983        0.32555        0.42932        0.41926        0.48603        0.54781        0.43982        0.40919        0.35202        0.29704        0.24860        0.26049        0.26451        0.27991        0.32086        0.33443        0.41658        0.46597        0.43322        0.44794        0.35743        0.36972        0.34954        0.25003        0.23178        0.23141        0.30112        0.36350        0.36414        0.38516        0.42869        0.42984        0.36104        0.33308        0.31141        0.33845        0.29637        0.26736        0.26912        0.33412        0.35885        0.37241        0.39018        0.37407        0.40255        0.38303        0.29800        0.27619        0.30841        0.33548        0.35627        0.35399        0.40229        0.33397        0.36750        0.38408        0.32249        0.34333        0.30310        0.28773        0.33229        0.32668        0.31624        0.33369        0.35649        0.31746        0.33582        0.30292        0.30546        0.27764        0.30207        0.29653        0.32594        0.36269        0.35733        0.33805        0.29363        0.28070        0.27898        0.31869        0.29324        0.30515        0.35767        0.35999        0.33204        0.30283        0.30022        0.30449        0.26576        0.28862        0.29803        0.31703        0.35228        0.32818        0.28449        0.32184        0.31249        0.30637        0.35031        0.33634        0.30361        0.32704        0.28629        0.31825        0.28067        0.30169        0.28993        0.31297        0.36479        0.32607        0.34290        0.29820        0.30952        0.32610        0.32273        0.29231        0.29091        0.32606        0.31777        0.31336        0.30470        0.30769        0.29279        0.29859        0.31558        0.31856        0.32869        0.33097        0.32728        0.28658        0.27221        0.26527        0.26112        0.35370        0.30761        0.35320        0.29179        0.26004        0.28271        0.35177        0.29907        0.27985        0.27438        0.30620        0.28233        0.26603        0.30926        0.27029        0.26484        0.29791        0.30828        0.33209        0.32291        0.29417        0.26486        0.25271        0.25121        0.26097        0.28371        0.34117        0.27644        0.19900        0.29308        0.26816        0.29856        0.22939        0.30604        0.30339        0.31603        0.27779        0.26138        0.26709        0.22538        0.28535        0.33491        0.35940        0.23711        0.26160        0.21001        0.21556        0.20157        0.33515        0.23851        0.22302        0.13928        0.23699        0.25790        0.21433        0.15705        0.04841       -0.60337       -0.83217
3.085897 3.047156 3.008665 2.970425 2.932435 2.894695 2.857205 2.819966 2.782976 2.746237 2.709748 2.673510 2.637521 2.601783 2.566295 2.531057 2.496069 2.461332 2.426845 2.392608 2.358621 2.324884 2.291398 2.258162 2.225176 2.192440 2.159954 2.127719 2.095734 2.063999 2.032514 2.001279 1.970295 1.939561 1.909077 1.878843 1.848859 1.819126 1.789643 1.760410 1.731427 1.702695 1.674213 1.645980 1.617999 1.590267 1.562785 1.535554 1.508573 1.481842 1.455361 1.490161 1.584890 1.524869 0.848168 0.585488 0.444125 0.376068 0.283745 0.202639 0.161874 -0.058631 0.190166 0.054410 -0.042902 -0.123618 -0.244485 -0.155725 -0.070844 -0.094770 -0.086703 0.028045 0.021712 0.215007 0.100037 0.345883 0.455934 0.474904 0.752740 0.684699 0.683101 0.828242 0.796196 0.829525 0.919273 0.861154 0.893042 0.728957 0.804808 0.843114 0.673557 0.603070 0.439781 0.423278 0.352757 0.181354 0.178811 0.116584 0.211981 0.117719 0.212838 0.106782 0.226794 0.234976 0.457379 0.413974 0.591841 0.629284 0.669691 0.729447 0.625071 0.605668 0.471039 0.421712 0.306596 0.273712 0.106946 0.168410 -0.019168 0.036711 -0.034899 -0.037829 -0.036094 0.040467 0.289035 0.305142 0.384414 0.329178 0.409746 0.439921 0.432349 0.428984 0.371385 0.357531 0.141046 0.090391 0.068136 -0.003003 -0.148147 -0.035552 -0.070706 0.045506 0.098049 0.170413 0.239944 0.248702 0.337846 0.426656 0.324371 0.376306 0.263576 0.143473 0.067459 0.054302 0.007907 0.040767 0.074827 0.109389 0.120170 0.195726 0.249994 0.301125 0.309857 0.235479 0.264340 0.234243 0.113041 0.087094 0.045783 0.038877 0.008351 0.003930 0.044448 0.176003 0.194263 0.199922 0.316566 0.194624 0.217913 0.093091 0.080595 -0.004951 -0.004982 0.007659 0.006944 0.042914 0.052506 0.094875 0.160113 0.157681 0.211669 0.125774 0.080430 0.105423 0.047984 -0.066047 -0.026468 0.012412 0.053596 0.073743 0.083058 0.154477 0.134098 0.150968 0.038827 0.055686 0.052332 0.050666 0.022071 -0.019554 0.035534 0.043127 0.087184 0.106913 0.102081 0.106112 0.125723 0.069230 0.007187 0.001948 0.033300 0.079476 0.062529 0.106552 0.096679 0.056327 0.113187 0.069485 0.039374 0.077805 -0.024494 0.024119 0.058982 0.036150 0.039879 0.043473 0.069701 0.051977 0.053566 0.009717 0.020528 -0.011388 0.033387 0.001299 0.052891 0.076829 0.064165 0.034050 -0.014788 -0.013140 -0.013055 0.027868 -0.004305 0.013422 0.068076 0.061775 -0.012638 0.010628 -0.010308 0.008106 -0.044659 -0.016818 -0.008781 0.025673 0.034763 0.015351 -0.023332 0.006877 -0.006720 0.001113 0.043205 0.014935 0.019139 -0.088132 0.007421 -0.004368 -0.051071 -0.012539 -0.026848 0.019736 0.058327 0.006465 0.003064 -0.001631 0.010285 0.014185 0.027469 -0.015528 -0.006509 0.011480 0.049554 0.014892 0.005665 0.049738 -0.015026 0.001401 0.029233 0.009894 0.066963 0.053610 0.019279 0.011547 -0.005169 -0.032529 0.000340 0.076665 0.003852 0.068490 -0.016115 -0.022844 -0.016950 0.087860 -0.007416 -0.000139 0.035927 0.023599 -0.000285 0.004154 0.030249 0.006293 -0.000612 0.021285 0.059409 0.091288 0.053591 0.031542 0.010881 -0.016430 -0.005792 0.001959 0.011387 0.102421 -0.025284 -0.092304 0.059079 -0.014487 0.041286 -0.059975 0.026189 0.013918 0.013480 -0.008789 -0.022427 -0.027210 -0.060813 0.019912 0.050909 0.076636 -0.112224 0.024691 -0.064634 -0.011646 -0.102044 0.132202 0.021419 0.053103 -0.052785 0.120706 0.254321 0.175629 0.104122 0.053171 -0.784191
0.072396 0.073047 0.074999 0.078252 0.082804 0.088655 0.095802 0.104242 0.113971 0.124983 0.137274 0.150833 0.165651 0.181715 0.199010 0.217517 0.237214 0.258075 0.280069 0.303161 0.327310 0.352468 0.378582 0.405592 0.433428 0.462014 0.491265 0.521087 0.551374 0.582014 0.612879 0.643836 0.674737 0.705423 0.735725 0.765462 0.794440 0.822457 0.849298 0.874738 0.898544 0.920475 0.940279 0.957703 0.972487 0.984368 0.993085 0.998377 0.999987 0.997669 0.991184 0.980307 0.964832 0.944573 0.919370 0.889091 0.853637 0.812948 0.767005 0.715835 0.659515 0.598175 0.532004 0.461251 0.386228 0.307313 0.224950 0.139653 0.052001 0.037358 0.127712 0.218291 0.308265 0.396756 0.482841 0.565564 0.643944 0.716989 0.783705 0.843115 0.894269 0.936266 0.968267 0.989515 0.999353 0.997241 0.982774 0.955703 0.915943 0.863597 0.798961 0.722538 0.635040 0.537399 0.430760 0.316478 0.196109 0.071397 0.055748 0.183275 0.309020 0.430740 0.546156 0.652992 0.749028 0.832145 0.900378 0.951974 0.985433 0.999571 0.993555 0.966955 0.919772 0.852468 0.765986 0.661753 0.541675 0.408124 0.263901 0.112187 0.043507 0.199424 0.351643 0.496173 0.629065 0.746522 0.845016 0.921402 0.973039 0.997885 0.994602 0.962630 0.902244 0.814598 0.701729 0.566541 0.412756 0.244834 0.067861 0.112587 0.290615 0.460199 0.615384 0.750510 0.860422 0.940693 0.987817 0.999390 0.974254 0.912600 0.816028 0.687547 0.531527 0.353577 0.160383 0.040529 0.241066 0.432888 0.607753 0.757886 0.876340 0.957342 0.996608 0.991604 0.941737 0.848470 0.715342 0.547887 0.353446 0.140893 0.079745 0.297745 0.502193 0.682547 0.829189 0.933973 0.990712 0.995592 0.947470 0.848049 0.701892 0.516280 0.300913 0.067439 0.171127 0.401123 0.609013 0.782202 0.909831 0.983496 0.997865 0.951118 0.845196 0.685817 0.482241 0.246817 0.005728 0.259166 0.496785 0.702518 0.862035 0.963804 0.999976 0.967072 0.866376 0.704012 0.490669 0.240984 0.027400 0.295033 0.542058 0.749681 0.901656 0.985601 0.994097 0.925431 0.783916 0.579749 0.328380 0.049430 0.234781 0.500988 0.726896 0.893082 0.984730 0.993048 0.916219 0.759772 0.536327 0.264699 0.031595 0.326309 0.592773 0.806322 0.946631 0.999754 0.959616 0.828827 0.618691 0.348377 0.043283 0.267261 0.552787 0.784668 0.939072 0.999494 0.958653 0.819510 0.595246 0.308185 0.012307 0.332737 0.618950 0.839798 0.970604 0.996038 0.912080 0.726767 0.459623 0.139774 0.197110 0.512725 0.770488 0.939840 0.999989 0.942624 0.773237 0.510835 0.185983 0.162590 0.492541 0.763038 0.939888 0.999975 0.934471 0.750326 0.469774 0.127856 0.231795 0.562462 0.820396 0.970705 0.992234 0.880746 0.649917 0.329911 0.036353 0.398825 0.707121 0.917561 0.999516 0.940058 0.746243 0.444569 0.077604 0.301851 0.638273 0.881570 0.994660 0.959338 0.779461 0.480883 0.107999 0.282641 0.630818 0.881945 0.995757 0.952996 0.758945 0.443148 0.055187 0.342877 0.686366 0.918506 0.999997 0.915914 0.678750 0.326912 0.081206 0.476729 0.791872 0.971652 0.983687 0.824361 0.520049 0.123133 0.296782 0.664929 0.914707 0.999920 0.903616 0.641797 0.261181 0.168849 0.568657 0.863106 0.995809 0.940214 0.705288 0.334519 0.101768 0.519519 0.837087 0.991314 0.950375 0.720745 0.346655 0.098011 0.524095 0.844929 0.994144 0.939672 0.691075 0.298354 0.157682 0.581816 0.884244 0.999786 0.902253 0.610848 0.186887 0.278711 0.684712
1.000000 1.000000 1.000000 1.000000 1.000000 1.000000 1.000000 1.000000 1.000000 1.000000 1.000000 1.000000 1.000000 1.000000 1.000000 1.000000 1.000000 1.000000 1.000000 1.000000 1.000000 1.000000 1.000000 1.000000 1.000000 1.000000 1.000000 1.000000 1.000000 1.000000 1.000000 1.000000 1.000000 1.000000 1.000000 1.000000 1.000000 1.000000 1.000000 1.000000 1.000000 1.000000 1.000000 1.000000 1.000000 1.000000 1.000000 1.000000 1.000000 1.000000 1.000000 1.000000 0.929114 0.929114 0.929114 0.929114 0.929114 0.929114 0.929114 0.929114 0.929114 0.929114 0.929114 0.929114 0.929114 0.929114 0.929114 0.929114 0.929114 0.929114 0.929114 0.929114 0.929114 0.929114 0.929114 0.929114 0.929114 0.929114 0.929114 0.929114 0.929114 0.929114 0.929114 0.929114 0.929114 0.916879 0.914865 0.915991 0.917110 0.917016 0.916491 0.916156 0.917191 0.918719 0.920666 0.942210 0.945594 0.946268 0.947497 0.948938 0.951461 0.949587 0.957537 0.964279 0.963420 0.964368 0.958353 0.959490 0.958949 0.958275 0.959987 0.959929 0.958439 0.956685 0.955330 0.954897 0.954637 0.956325 0.956746 0.957042 0.957503 0.957447 0.957304 0.957263 0.957557 0.959808 0.958972 0.958031 0.963673 0.962255 0.964182 0.964159 0.964868 0.965602 0.965816 0.965999 0.961695 0.961238 0.960412 0.948014 0.941237 0.938624 0.941026 0.944112 0.941256 0.936974 0.938301 0.940964 0.939554 0.939100 0.929658 0.927534 0.908204 0.898517 0.887137 0.887779 0.889760 0.891049 0.888942 0.880531 0.870715 0.866868 0.869146 0.863612 0.859306 0.875898 0.871680 0.872593 0.876434 0.878942 0.884234 0.879105 0.874989 0.870629 0.866929 0.863343 0.865840 0.870585 0.873872 0.861510 0.853990 0.856683 0.845671 0.839014 0.845717 0.847614 0.843888 0.842897 0.843853 0.844098 0.836508 0.831856 0.833851 0.843588 0.843414 0.833581 0.829354 0.823457 0.823531 0.819765 0.820902 0.820001 0.816915 0.810961 0.824551 0.793856 0.817019 0.814352 0.802277 0.787402 0.774429 0.779455 0.791425 0.794764 0.790713 0.775352 0.773652 0.771390 0.749542 0.754942 0.762176 0.759896 0.746664 0.723564 0.731425 0.741842 0.733212 0.723922 0.725815 0.726703 0.696498 0.709926 0.713713 0.698930 0.713737 0.714098 0.705535 0.703411 0.704497 0.704737 0.696036 0.658005 0.660585 0.665551 0.654459 0.602220 0.600988 0.602040 0.599489 0.527031 0.532493 0.522064 0.523348 0.505248 0.534135 0.505404 0.497615 0.525821 0.473839 0.383514 0.396966 0.390916 0.394797 0.409701 0.387355 0.334764 0.338216 0.376849 0.357866 0.327271 0.277233 0.317749 0.335103 0.370164 0.356785 0.368239 0.393083 0.375341 0.353794 0.336500 0.352838 0.344898 0.386030 0.329786 0.299384 0.297239 0.320775 0.322890 0.322749 0.309026 0.261889 0.283807 0.236885 0.262126 0.240338 0.223344 0.227295 0.258577 0.252694 0.261667 0.245084 0.277575 0.267121 0.266116 0.255920 0.271040 0.299661 0.248396 0.258443 0.287502 0.300426 0.381613 0.390517 0.359779 0.217771 0.279813 0.258327 0.264489 0.236435 0.156294 0.163585 0.172905 0.134479 0.140351 0.129388 0.100493 0.076694 0.042417 0.040660 0.012315 0.018556 0.038182 0.023373 0.024097 0.024097 0.024097 0.024097 -0.010255 -0.010255 -0.010255 -0.010255 -0.010255 -0.010255 -0.010255 -0.010255 -0.010255 -0.010255 -0.010255 -0.010255 -0.010255 -0.010255 0.012001 0.012001 0.012001 0.012001 0.012001 0.012001 0.012001 0.012001 0.012001 0.012001 0.012001 0.012001
0.000000 0.000000 0.000000 0.000000 0.000000 0.000000 0.000000 0.000000 0.000000 0.000000 0.000000 0.000000 0.000000 0.000000 0.000000 0.000000 0.000000 0.000000 0.000000 0.000000 0.000000 0.000000 0.000000 0.000000 0.000000 0.000000 0.000000 0.000000 0.000000 0.000000 0.000000 0.000000 0.000000 0.000000 0.000000 0.000000 0.000000 0.000000 0.000000 0.000000 0.000000 0.000000 0.000000 0.000000 0.000000 0.000000 0.000000 0.000000 0.000000 0.000000 0.000000 0.000000 0.209657 0.209657 0.209657 0.209657 0.209657 0.209657 0.209657 0.209657 0.209657 0.209657 0.209657 0.209657 0.209657 0.209657 0.209657 0.209657 0.209657 0.209657 0.209657 0.209657 0.209657 0.209657 0.209657 0.209657 0.209657 0.209657 0.209657 0.209657 0.209657 0.209657 0.209657 0.209657 0.209657 0.244339 0.244339 0.244339 0.244339 0.244339 0.244339 0.244339 0.244339 0.244339 0.244339 0.244339 0.244339 0.244339 0.244339 0.244339 0.244339 0.244339 0.244339 0.244339 0.244339 0.244339 0.244339 0.244339 0.244339 0.244339 0.260378 0.260378 0.260378 0.260378 0.260378 0.260378 0.260378 0.260378 0.260378 0.260378 0.260378 0.260378 0.260378 0.260378 0.260378 0.260378 0.260378 0.260378 0.260378 0.260378 0.269680 0.269680 0.269680 0.269680 0.269680 0.269680 0.269680 0.269680 0.269680 0.269680 0.269680 0.269680 0.269680 0.269680 0.269680 0.269680 0.269680 0.269680 0.269680 0.269680 0.269680 0.269680 0.269680 0.269680 0.269680 0.269680 0.269680 0.269680 0.269680 0.269680 0.269680 0.269680 0.269680 0.280056 0.280056 0.280056 0.280056 0.280056 0.280056 0.280056 0.280056 0.280056 0.280056 0.280056 0.280056 0.280056 0.280056 0.280056 0.280056 0.280056 0.280056 0.280056 0.280056 0.280056 0.280056 0.280056 0.280056 0.280056 0.280056 0.280056 0.274721 0.274721 0.274721 0.274721 0.274721 0.274721 0.274721 0.274721 0.274721 0.274721 0.274721 0.274721 0.274721 0.285714 0.285714 0.285714 0.285714 0.285714 0.285714 0.285714 0.285714 0.285714 0.285714 0.285714 0.280056 0.280056 0.280056 0.280056 0.280056 0.280056 0.280056 0.280056 0.280056 0.280056 0.280056 0.274721 0.274721 0.274721 0.274721 0.274721 0.274721 0.274721 0.274721 0.274721 0.274721 0.274721 0.280056 0.280056 0.280056 0.280056 0.280056 0.280056 0.280056 0.280056 0.280056 0.280056 0.285714 0.285714 0.285714 0.285714 0.285714 0.285714 0.285714 0.285714 0.285714 0.269680 0.269680 0.269680 0.269680 0.269680 0.269680 0.269680 0.269680 0.269680 0.269680 0.291730 0.291730 0.291730 0.291730 0.291730 0.291730 0.291730 0.291730 0.269680 0.269680 0.269680 0.269680 0.269680 0.269680 0.269680 0.269680 0.269680 0.264906 0.264906 0.264906 0.264906 0.264906 0.264906 0.264906 0.264906 0.264906 0.274721 0.274721 0.274721 0.274721 0.274721 0.274721 0.274721 0.274721 0.269680 0.269680 0.269680 0.269680 0.269680 0.269680 0.269680 0.269680 0.285714 0.285714 0.285714 0.285714 0.285714 0.285714 0.285714 0.264906 0.264906 0.264906 0.264906 0.264906 0.264906 0.264906 0.264906 0.274721 0.274721 0.274721 0.274721 0.274721 0.274721 0.274721 0.256074 0.256074 0.256074 0.256074 0.256074 0.256074 0.256074 0.256074 0.264906 0.264906 0.264906 0.264906 0.264906 0.264906 0.264906 0.264906 0.264906 0.264906 0.264906 0.264906 0.264906 0.264906 0.260378 0.260378 0.260378 0.260378 0.260378 0.260378 0.260378 0.260378 0.260378 0.260378 0.260378 0.260378
