# Output from CTFFind version 4.1.9, run on 2019-11-03 19:47:52
# Input file: stack6_bm3d_averaged_1_5.25_0_1500_half.mrc ; Number of micrographs: 1
# Pixel size: 3.000 Angstroms ; acceleration voltage: 300.0 keV ; spherical aberration: 0.00 mm ; amplitude contrast: 0.07
# Box size: 512 pixels ; min. res.: 30.0 Angstroms ; max. res.: 5.0 Angstroms ; min. def.: 5000.0 um; max. def. 50000.0 um; num. frames averaged: 1
# 6 lines per micrograph: #1 - spatial frequency (1/Angstroms); #2 - 1D rotational average of spectrum (assuming no astigmatism); #3 - 1D rotational average of spectrum; #4 - CTF fit; #5 - cross-correlation between spectrum and CTF fit; #6 - 2sigma of expected cross correlation of noise
0.000000 0.000651 0.001302 0.001953 0.002604 0.003255 0.003906 0.004557 0.005208 0.005859 0.006510 0.007161 0.007812 0.008464 0.009115 0.009766 0.010417 0.011068 0.011719 0.012370 0.013021 0.013672 0.014323 0.014974 0.015625 0.016276 0.016927 0.017578 0.018229 0.018880 0.019531 0.020182 0.020833 0.021484 0.022135 0.022786 0.023438 0.024089 0.024740 0.025391 0.026042 0.026693 0.027344 0.027995 0.028646 0.029297 0.029948 0.030599 0.031250 0.031901 0.032552 0.033203 0.033854 0.034505 0.035156 0.035807 0.036458 0.037109 0.037760 0.038411 0.039062 0.039714 0.040365 0.041016 0.041667 0.042318 0.042969 0.043620 0.044271 0.044922 0.045573 0.046224 0.046875 0.047526 0.048177 0.048828 0.049479 0.050130 0.050781 0.051432 0.052083 0.052734 0.053385 0.054036 0.054688 0.055339 0.055990 0.056641 0.057292 0.057943 0.058594 0.059245 0.059896 0.060547 0.061198 0.061849 0.062500 0.063151 0.063802 0.064453 0.065104 0.065755 0.066406 0.067057 0.067708 0.068359 0.069010 0.069661 0.070312 0.070964 0.071615 0.072266 0.072917 0.073568 0.074219 0.074870 0.075521 0.076172 0.076823 0.077474 0.078125 0.078776 0.079427 0.080078 0.080729 0.081380 0.082031 0.082682 0.083333 0.083984 0.084635 0.085286 0.085938 0.086589 0.087240 0.087891 0.088542 0.089193 0.089844 0.090495 0.091146 0.091797 0.092448 0.093099 0.093750 0.094401 0.095052 0.095703 0.096354 0.097005 0.097656 0.098307 0.098958 0.099609 0.100260 0.100911 0.101562 0.102214 0.102865 0.103516 0.104167 0.104818 0.105469 0.106120 0.106771 0.107422 0.108073 0.108724 0.109375 0.110026 0.110677 0.111328 0.111979 0.112630 0.113281 0.113932 0.114583 0.115234 0.115885 0.116536 0.117188 0.117839 0.118490 0.119141 0.119792 0.120443 0.121094 0.121745 0.122396 0.123047 0.123698 0.124349 0.125000 0.125651 0.126302 0.126953 0.127604 0.128255 0.128906 0.129557 0.130208 0.130859 0.131510 0.132161 0.132812 0.133464 0.134115 0.134766 0.135417 0.136068 0.136719 0.137370 0.138021 0.138672 0.139323 0.139974 0.140625 0.141276 0.141927 0.142578 0.143229 0.143880 0.144531 0.145182 0.145833 0.146484 0.147135 0.147786 0.148438 0.149089 0.149740 0.150391 0.151042 0.151693 0.152344 0.152995 0.153646 0.154297 0.154948 0.155599 0.156250 0.156901 0.157552 0.158203 0.158854 0.159505 0.160156 0.160807 0.161458 0.162109 0.162760 0.163411 0.164062 0.164714 0.165365 0.166016 0.166667 0.167318 0.167969 0.168620 0.169271 0.169922 0.170573 0.171224 0.171875 0.172526 0.173177 0.173828 0.174479 0.175130 0.175781 0.176432 0.177083 0.177734 0.178385 0.179036 0.179688 0.180339 0.180990 0.181641 0.182292 0.182943 0.183594 0.184245 0.184896 0.185547 0.186198 0.186849 0.187500 0.188151 0.188802 0.189453 0.190104 0.190755 0.191406 0.192057 0.192708 0.193359 0.194010 0.194661 0.195312 0.195964 0.196615 0.197266 0.197917 0.198568 0.199219 0.199870 0.200521 0.201172 0.201823 0.202474 0.203125 0.203776 0.204427 0.205078 0.205729 0.206380 0.207031 0.207682 0.208333 0.208984 0.209635 0.210286 0.210938 0.211589 0.212240 0.212891 0.213542 0.214193 0.214844 0.215495 0.216146 0.216797 0.217448 0.218099 0.218750 0.219401 0.220052 0.220703 0.221354 0.222005 0.222656 0.223307 0.223958 0.224609 0.225260 0.225911 0.226562 0.227214 0.227865 0.228516 0.229167 0.229818 0.230469 0.231120 0.231771 0.232422 0.233073 0.233724 0.234375 0.235026 0.235677
       0.30562        0.30562        0.30562        0.30562        0.30562        0.30562        0.30562        0.30562        0.30562        0.30562        0.30562        0.30562        0.30562        0.30562        0.30562        0.30562        0.30562        0.30562        0.30562        0.30562        0.30562        0.30562        0.30562        0.30562        0.30562        0.30562        0.30562        0.30562        0.30562        0.30562        0.30562        0.30562        0.30562        0.30562        0.30562        0.30562        0.30562        0.30562        0.30562        0.30562        0.30562        0.30562        0.30562        0.30562        0.30562        0.30562        0.30562        0.30562        0.30562        0.30562        0.30562        0.59713        0.72379        0.35316        0.18327        0.12375       -0.15242        0.10468        0.02372        0.02842        0.08609        0.30519        0.32756        0.25457        0.14834       -0.04185       -0.01438        0.03843       -0.13753       -0.14698       -0.08947       -0.10959       -0.23227       -0.15145       -0.27170       -0.28410       -0.28516       -0.35030       -0.42817       -0.37187       -0.27984       -0.25005       -0.34917       -0.26014       -0.31822       -0.25581       -0.17990       -0.12976       -0.09242       -0.02066        0.01126        0.11470        0.15859        0.20915        0.33131        0.39575        0.35227        0.45988        0.54802        0.55630        0.63776        0.57931        0.61447        0.59654        0.61137        0.61281        0.55217        0.56853        0.55052        0.38957        0.32549        0.35792        0.34098        0.18758        0.15233        0.12120        0.07765        0.08253       -0.00707        0.05106        0.02743       -0.01667        0.09003        0.15694        0.25402        0.34734        0.33581        0.36472        0.45774        0.49158        0.42113        0.64571        0.53061        0.47821        0.56524        0.49742        0.52627        0.48624        0.36247        0.30347        0.26290        0.21552        0.19967        0.18375        0.16279        0.11319        0.18744        0.17774        0.21980        0.19356        0.25876        0.29983        0.32467        0.44291        0.42495        0.40749        0.43304        0.47418        0.44960        0.43763        0.38397        0.39827        0.33465        0.28039        0.23063        0.24096        0.23139        0.18163        0.15415        0.20697        0.20892        0.25650        0.32968        0.34861        0.40611        0.38625        0.43834        0.45327        0.44678        0.42048        0.38821        0.40508        0.36787        0.32800        0.32368        0.30391        0.25148        0.26770        0.26600        0.22064        0.28134        0.26306        0.27308        0.31219        0.36307        0.40160        0.39586        0.41361        0.37311        0.40298        0.38626        0.29691        0.27965        0.23774        0.25233        0.21349        0.19466        0.27797        0.32871        0.30450        0.27481        0.33199        0.25978        0.32495        0.36598        0.36219        0.35936        0.37898        0.31900        0.32999        0.31183        0.27680        0.27353        0.23907        0.28029        0.29516        0.30243        0.32349        0.36642        0.37155        0.36247        0.33004        0.34874        0.32684        0.31231        0.31040        0.27793        0.28082        0.25040        0.30523        0.31801        0.30714        0.28613        0.31851        0.32145        0.32585        0.33496        0.30373        0.27072        0.28400        0.27990        0.26136        0.24055        0.22749        0.24181        0.25555        0.24039        0.27352        0.27752        0.32027        0.31158        0.27075        0.29971        0.25513        0.20286        0.25950        0.23963        0.22125        0.26757        0.29769        0.28591        0.29298        0.29383        0.29145        0.30171        0.31293        0.26562        0.30234        0.29706        0.34024        0.27180        0.26390        0.24898        0.30049        0.30608        0.31551        0.33145        0.30785        0.21690        0.27540        0.25469        0.23696        0.23889        0.24141        0.28153        0.24215        0.29804        0.30620        0.34164        0.30430        0.28055        0.23936        0.25094        0.25429        0.23583        0.26179        0.28082        0.31068        0.32577        0.28558        0.28268        0.25692        0.28990        0.26563        0.23036        0.19626        0.25960        0.32857        0.30773        0.29934        0.28640        0.23249        0.23130        0.23773        0.21702        0.22068        0.26792        0.27512        0.26085        0.22212        0.21079        0.25834        0.23818        0.24913        0.26061        0.25564        0.17873        0.21694        0.25103        0.23706        0.28232        0.23984        0.22941        0.18099        0.25801        0.28739        0.18821        0.19216        0.11895        0.14220        0.29831        0.16551        0.17020        0.32388        0.19948        0.16141        0.11201        0.19907        0.11688        0.15018       -0.05513       -0.63964       -0.99414
2.227164 2.208331 2.189582 2.170916 2.152333 2.133834 2.115419 2.097087 2.078839 2.060674 2.042593 2.024596 2.006681 1.988851 1.971104 1.953440 1.935860 1.918364 1.900951 1.883622 1.866376 1.849214 1.832135 1.815140 1.798228 1.781400 1.764655 1.747994 1.731417 1.714923 1.698512 1.682186 1.665942 1.649782 1.633706 1.617714 1.601804 1.585979 1.570237 1.554578 1.539003 1.523511 1.508103 1.492779 1.477538 1.462381 1.447307 1.432317 1.417410 1.402587 1.387847 1.743325 2.068461 1.429882 1.309925 1.052591 0.520788 0.890257 0.815207 0.810896 0.692269 1.332824 1.194862 1.206466 0.965916 0.635508 0.489272 0.743930 0.549418 0.231118 0.309578 0.465570 0.217372 0.251054 0.106564 0.015361 -0.020456 -0.016055 -0.289327 -0.180299 -0.025481 -0.058084 -0.109756 -0.017804 -0.145241 -0.116733 0.058317 0.144695 0.209685 0.260086 0.327039 0.572871 0.526527 0.601533 0.816187 0.968776 0.794807 1.158484 1.138395 1.199199 1.296254 1.211654 1.192315 1.285263 1.182535 1.312080 1.137284 1.075366 1.166026 0.933750 0.649229 0.705279 0.763374 0.470982 0.390829 0.331972 0.192350 0.188668 0.042548 0.166609 0.130845 -0.004474 0.109573 0.229478 0.337553 0.590956 0.581609 0.546105 0.709196 0.863097 0.587263 1.009326 0.973529 0.741790 0.881566 0.738389 0.814541 0.831253 0.561100 0.414650 0.365884 0.308140 0.207972 0.150437 0.169946 -0.012972 0.151532 0.125720 0.214510 0.101169 0.276208 0.304778 0.269470 0.479408 0.580092 0.490736 0.376511 0.687224 0.564681 0.494180 0.481819 0.436375 0.323218 0.322551 0.121557 0.167411 0.062001 0.160568 -0.056096 0.040019 0.010096 0.209469 0.100761 0.337982 0.309380 0.355321 0.409500 0.403883 0.535283 0.390251 0.377012 0.426687 0.234648 0.319852 0.169046 0.250433 0.093044 0.132228 0.087613 0.084979 0.022664 0.140330 0.045966 0.134078 0.228346 0.254819 0.344736 0.272663 0.315970 0.257319 0.289500 0.186742 0.092478 0.056304 -0.002067 0.008366 -0.077408 -0.048393 0.084747 0.177419 0.062556 0.089276 0.098474 0.034984 0.173881 0.207273 0.186413 0.236521 0.142576 0.110169 0.102695 0.085074 0.044435 -0.055975 -0.016525 0.127933 -0.015680 0.118074 0.091770 0.211221 0.218315 0.168150 0.155492 0.170262 0.083546 0.091989 0.104512 0.033188 -0.013929 0.027443 0.090766 0.114040 0.083245 0.043450 0.119489 0.094284 0.076266 0.107741 0.010328 -0.029364 0.029130 -0.024493 -0.017312 -0.086902 -0.095527 -0.025712 -0.067657 -0.066694 -0.007782 0.015222 0.091253 0.053516 -0.021804 0.048307 -0.080061 -0.102125 0.015422 -0.080389 -0.096578 0.042966 0.044131 0.009167 0.045865 -0.003601 0.049736 0.104221 -0.042688 -0.001965 0.090931 0.014932 0.115421 -0.041362 -0.009962 -0.054087 0.104515 0.011382 0.085997 0.118759 0.041932 -0.101199 0.013732 -0.016834 -0.046242 -0.050186 -0.032477 0.015883 -0.053470 0.118427 0.070705 0.160942 0.064622 -0.005914 -0.016432 -0.004363 0.013989 -0.038772 0.052187 0.048103 0.127268 0.121773 0.080993 0.084778 0.036140 0.132472 0.002156 0.015228 -0.098555 0.087335 0.177841 0.099398 0.131802 0.056146 -0.017980 -0.019569 -0.018885 -0.036543 -0.020417 0.057014 0.099206 0.031497 -0.019501 0.000866 0.061108 0.055805 0.056397 0.093109 0.045703 -0.008812 0.010319 0.104574 0.082390 0.158246 0.080113 0.002374 0.063624 0.161721 0.190117 0.105241 0.073112 -0.068344 -0.100797 0.450197 0.332838 0.276983 0.604972 0.278946 0.274424 0.121340 0.464561 0.195334 0.282080 0.205927 -0.877246
0.072396 0.072838 0.074163 0.076371 0.079462 0.083435 0.088289 0.094022 0.100634 0.108122 0.116484 0.125716 0.135815 0.146776 0.158594 0.171262 0.184772 0.199116 0.214282 0.230259 0.247032 0.264586 0.282903 0.301961 0.321739 0.342209 0.363344 0.385111 0.407474 0.430396 0.453833 0.477738 0.502061 0.526747 0.551735 0.576960 0.602354 0.627843 0.653346 0.678779 0.704051 0.729069 0.753731 0.777931 0.801559 0.824499 0.846629 0.867825 0.887956 0.906890 0.924488 0.940610 0.955112 0.967851 0.978680 0.987451 0.994019 0.998237 0.999964 0.999060 0.995388 0.988821 0.979236 0.966518 0.950564 0.931282 0.908590 0.882425 0.852736 0.819493 0.782682 0.742313 0.698416 0.651047 0.600285 0.546238 0.489041 0.428857 0.365881 0.300336 0.232478 0.162594 0.091002 0.018050 0.055883 0.130388 0.205031 0.279348 0.352856 0.425047 0.495396 0.563366 0.628407 0.689964 0.747479 0.800402 0.848190 0.890315 0.926273 0.955588 0.977820 0.992569 0.999485 0.998277 0.988713 0.970632 0.943948 0.908657 0.864842 0.812675 0.752424 0.684454 0.609231 0.527317 0.439375 0.346165 0.248540 0.147440 0.043885 0.061028 0.166143 0.270251 0.372106 0.470437 0.563965 0.651424 0.731572 0.803218 0.865233 0.916578 0.956321 0.983654 0.997916 0.998607 0.985407 0.958192 0.917039 0.862242 0.794319 0.714007 0.622269 0.520285 0.409446 0.291336 0.167716 0.040506 0.088250 0.216406 0.341757 0.462066 0.575119 0.678750 0.770902 0.849658 0.913296 0.960323 0.989521 0.999980 0.991137 0.962795 0.915150 0.848800 0.764752 0.664419 0.549605 0.422480 0.285552 0.141622 0.006269 0.154897 0.300927 0.440980 0.571721 0.689935 0.792613 0.877034 0.940842 0.982127 0.999484 0.992074 0.959665 0.902665 0.822136 0.719788 0.597962 0.459586 0.308120 0.147478 0.018066 0.183983 0.345614 0.498297 0.637510 0.759000 0.858929 0.934004 0.981593 0.999836 0.987727 0.945176 0.873050 0.773168 0.648289 0.502048 0.338864 0.163824 0.017463 0.199040 0.374797 0.538674 0.684877 0.808085 0.903659 0.967832 0.997874 0.992225 0.950588 0.873990 0.764777 0.626575 0.464192 0.283467 0.091080 0.105682 0.299199 0.481803 0.646095 0.785242 0.893285 0.965408 0.998170 0.989698 0.939809 0.850073 0.723801 0.565943 0.382939 0.182460 0.026882 0.235900 0.435226 0.615737 0.768976 0.887568 0.965597 0.998919 0.985421 0.925170 0.820481 0.675864 0.497862 0.294798 0.076395 0.146661 0.363236 0.562304 0.733521 0.867767 0.957665 0.998014 0.986118 0.922006 0.808499 0.651135 0.457938 0.239048 0.006209 0.227834 0.450029 0.647754 0.809529 0.925727 0.989163 0.995583 0.943987 0.836772 0.679681 0.481538 0.253798 0.009912 0.235431 0.467203 0.670938 0.833664 0.944749 0.996643 0.985427 0.911160 0.777971 0.593885 0.370404 0.121820 0.135662 0.384967 0.609279 0.793179 0.923751 0.991510 0.991152 0.922021 0.788260 0.598637 0.366026 0.106581 0.161341 0.418481 0.646035 0.827068 0.947796 0.998685 0.975268 0.878586 0.715243 0.497021 0.240102 0.036101 0.310362 0.561273 0.768927 0.916516 0.991754 0.987952 0.904681 0.747947 0.529842 0.267673 0.017345 0.301778 0.561874 0.775578 0.924413 0.995148 0.981031 0.882517 0.707374 0.470168 0.191118 0.105567 0.393759 0.647693 0.844311 0.965377 0.999256 0.942097 0.798357 0.580554 0.308267 0.006448 0.296823 0.572914 0.795383 0.942524 0.999570 0.960250 0.827572 0.613716 0.339009 0.030078 0.282680 0.568056 0.797160 0.946401 0.999962
1.000000 1.000000 1.000000 1.000000 1.000000 1.000000 1.000000 1.000000 1.000000 1.000000 1.000000 1.000000 1.000000 1.000000 1.000000 1.000000 1.000000 1.000000 1.000000 1.000000 1.000000 1.000000 1.000000 1.000000 1.000000 1.000000 1.000000 1.000000 1.000000 1.000000 1.000000 1.000000 1.000000 1.000000 1.000000 1.000000 1.000000 1.000000 1.000000 1.000000 1.000000 1.000000 1.000000 1.000000 1.000000 1.000000 1.000000 1.000000 1.000000 1.000000 1.000000 1.000000 0.779568 0.779568 0.779568 0.779568 0.779568 0.779568 0.779568 0.764608 0.764608 0.764608 0.764608 0.764608 0.764608 0.764608 0.764608 0.764608 0.764608 0.764608 0.764608 0.764608 0.764608 0.764608 0.764608 0.764608 0.764608 0.764608 0.764608 0.764608 0.764608 0.764608 0.764608 0.764608 0.764608 0.764608 0.764608 0.764608 0.764608 0.764608 0.764608 0.764608 0.764608 0.764608 0.764608 0.764608 0.764608 0.764608 0.764608 0.764608 0.764608 0.764608 0.764608 0.911952 0.912169 0.914905 0.909608 0.911434 0.909369 0.902922 0.905883 0.905179 0.905025 0.905991 0.907273 0.909137 0.912387 0.918794 0.921574 0.929604 0.932880 0.934148 0.934175 0.931211 0.938713 0.936275 0.934518 0.922622 0.925969 0.925619 0.925802 0.924617 0.924740 0.925947 0.925891 0.923762 0.921909 0.919681 0.917857 0.917678 0.917258 0.917210 0.917390 0.917985 0.918423 0.919011 0.915150 0.917414 0.916300 0.912732 0.909467 0.909058 0.910244 0.904269 0.901276 0.895218 0.896596 0.896740 0.900919 0.897454 0.897680 0.898887 0.899639 0.900286 0.899497 0.899547 0.898011 0.899731 0.897262 0.893014 0.890558 0.891002 0.893240 0.898898 0.901411 0.901324 0.898747 0.892936 0.883694 0.882081 0.868691 0.843463 0.844876 0.846953 0.849260 0.849046 0.848572 0.847398 0.844212 0.839411 0.833760 0.837800 0.836940 0.830570 0.814333 0.813941 0.809200 0.816295 0.820948 0.813469 0.816641 0.812187 0.814590 0.815424 0.813091 0.813108 0.809375 0.812434 0.819994 0.819998 0.815039 0.810901 0.803418 0.781035 0.779268 0.785365 0.798283 0.798840 0.794270 0.781590 0.788995 0.786033 0.783541 0.796633 0.796163 0.794215 0.772488 0.738115 0.721352 0.712447 0.714102 0.716801 0.710822 0.706377 0.705584 0.710137 0.669204 0.660448 0.648593 0.647092 0.656523 0.656274 0.654008 0.637146 0.654529 0.650290 0.628933 0.623850 0.576709 0.563523 0.509152 0.513026 0.513526 0.485254 0.474201 0.460117 0.479110 0.491683 0.491657 0.487250 0.459161 0.444291 0.435655 0.437777 0.444918 0.443566 0.447953 0.415980 0.400152 0.389911 0.404303 0.406131 0.407404 0.431183 0.449461 0.452487 0.436280 0.418548 0.413953 0.428923 0.439056 0.450499 0.449728 0.438037 0.416093 0.395027 0.403665 0.438418 0.440096 0.439881 0.428254 0.436983 0.447752 0.430938 0.416018 0.397955 0.445125 0.450098 0.440999 0.392543 0.375064 0.390311 0.393147 0.392505 0.369577 0.375728 0.397735 0.396867 0.403217 0.403874 0.442865 0.497180 0.485239 0.473433 0.496187 0.484452 0.475259 0.453335 0.443458 0.436712 0.418765 0.408720 0.389466 0.385197 0.373949 0.376824 0.399974 0.405446 0.423992 0.399135 0.371618 0.272033 0.345916 0.247804 0.261580 0.261580 0.261580 0.261580 0.261580 0.261580 0.261580 0.261580 0.297110 0.297110 0.297110 0.297110 0.297110 0.297110 0.297110 0.297110 0.297110 0.297110 0.297110 0.297110 0.297110 0.297110 0.297110 0.297110 0.297110 0.297110 0.297110 0.297110 0.297110
0.000000 0.000000 0.000000 0.000000 0.000000 0.000000 0.000000 0.000000 0.000000 0.000000 0.000000 0.000000 0.000000 0.000000 0.000000 0.000000 0.000000 0.000000 0.000000 0.000000 0.000000 0.000000 0.000000 0.000000 0.000000 0.000000 0.000000 0.000000 0.000000 0.000000 0.000000 0.000000 0.000000 0.000000 0.000000 0.000000 0.000000 0.000000 0.000000 0.000000 0.000000 0.000000 0.000000 0.000000 0.000000 0.000000 0.000000 0.000000 0.000000 0.000000 0.000000 0.000000 0.173422 0.173422 0.173422 0.173422 0.173422 0.173422 0.173422 0.191565 0.191565 0.191565 0.191565 0.191565 0.191565 0.191565 0.191565 0.191565 0.191565 0.191565 0.191565 0.191565 0.191565 0.191565 0.191565 0.191565 0.191565 0.191565 0.191565 0.191565 0.191565 0.191565 0.191565 0.191565 0.191565 0.191565 0.191565 0.191565 0.191565 0.191565 0.191565 0.191565 0.191565 0.191565 0.191565 0.191565 0.191565 0.191565 0.191565 0.191565 0.191565 0.191565 0.191565 0.222222 0.222222 0.222222 0.222222 0.222222 0.222222 0.222222 0.222222 0.222222 0.222222 0.222222 0.222222 0.222222 0.222222 0.222222 0.222222 0.222222 0.222222 0.222222 0.222222 0.222222 0.222222 0.222222 0.222222 0.222222 0.222222 0.222222 0.222222 0.222222 0.222222 0.234082 0.234082 0.234082 0.234082 0.234082 0.234082 0.234082 0.234082 0.234082 0.234082 0.234082 0.234082 0.234082 0.234082 0.234082 0.234082 0.234082 0.234082 0.234082 0.234082 0.234082 0.234082 0.234082 0.234082 0.234082 0.244339 0.244339 0.244339 0.244339 0.244339 0.244339 0.244339 0.244339 0.244339 0.244339 0.244339 0.244339 0.244339 0.244339 0.244339 0.244339 0.244339 0.244339 0.244339 0.244339 0.244339 0.248069 0.248069 0.248069 0.248069 0.248069 0.248069 0.248069 0.248069 0.248069 0.248069 0.248069 0.248069 0.248069 0.248069 0.248069 0.248069 0.248069 0.248069 0.248069 0.256074 0.256074 0.256074 0.256074 0.256074 0.256074 0.256074 0.256074 0.256074 0.256074 0.256074 0.256074 0.256074 0.256074 0.256074 0.256074 0.256074 0.256074 0.256074 0.256074 0.256074 0.256074 0.256074 0.256074 0.256074 0.256074 0.256074 0.256074 0.256074 0.256074 0.256074 0.256074 0.256074 0.256074 0.256074 0.256074 0.256074 0.256074 0.256074 0.256074 0.256074 0.256074 0.256074 0.256074 0.256074 0.256074 0.256074 0.256074 0.256074 0.256074 0.256074 0.256074 0.256074 0.256074 0.256074 0.256074 0.256074 0.256074 0.256074 0.256074 0.256074 0.256074 0.260378 0.260378 0.260378 0.260378 0.260378 0.260378 0.260378 0.260378 0.260378 0.260378 0.260378 0.260378 0.260378 0.256074 0.256074 0.256074 0.256074 0.256074 0.256074 0.256074 0.256074 0.256074 0.256074 0.256074 0.256074 0.256074 0.260378 0.260378 0.260378 0.260378 0.260378 0.260378 0.260378 0.260378 0.260378 0.260378 0.260378 0.260378 0.251976 0.251976 0.251976 0.251976 0.251976 0.251976 0.251976 0.251976 0.251976 0.251976 0.251976 0.251976 0.256074 0.256074 0.256074 0.256074 0.256074 0.256074 0.256074 0.256074 0.256074 0.256074 0.256074 0.251976 0.251976 0.251976 0.251976 0.251976 0.251976 0.251976 0.251976 0.251976 0.251976 0.251976 0.260378 0.260378 0.260378 0.260378 0.260378 0.260378 0.260378 0.260378 0.260378 0.260378 0.244339 0.244339 0.244339 0.244339 0.244339 0.244339 0.244339 0.244339 0.244339 0.244339 0.244339 0.244339 0.244339 0.244339 0.244339 0.244339 0.244339 0.244339 0.244339 0.244339 0.244339
