# Output from CTFFind version 4.1.9, run on 2019-11-03 19:34:58
# Input file: stack1_bm3d_averaged_1_4.25_0_1500_half.mrc ; Number of micrographs: 1
# Pixel size: 3.000 Angstroms ; acceleration voltage: 300.0 keV ; spherical aberration: 0.00 mm ; amplitude contrast: 0.07
# Box size: 512 pixels ; min. res.: 30.0 Angstroms ; max. res.: 5.0 Angstroms ; min. def.: 5000.0 um; max. def. 50000.0 um; num. frames averaged: 1
# 6 lines per micrograph: #1 - spatial frequency (1/Angstroms); #2 - 1D rotational average of spectrum (assuming no astigmatism); #3 - 1D rotational average of spectrum; #4 - CTF fit; #5 - cross-correlation between spectrum and CTF fit; #6 - 2sigma of expected cross correlation of noise
0.000000 0.000651 0.001302 0.001953 0.002604 0.003255 0.003906 0.004557 0.005208 0.005859 0.006510 0.007161 0.007812 0.008464 0.009115 0.009766 0.010417 0.011068 0.011719 0.012370 0.013021 0.013672 0.014323 0.014974 0.015625 0.016276 0.016927 0.017578 0.018229 0.018880 0.019531 0.020182 0.020833 0.021484 0.022135 0.022786 0.023438 0.024089 0.024740 0.025391 0.026042 0.026693 0.027344 0.027995 0.028646 0.029297 0.029948 0.030599 0.031250 0.031901 0.032552 0.033203 0.033854 0.034505 0.035156 0.035807 0.036458 0.037109 0.037760 0.038411 0.039062 0.039714 0.040365 0.041016 0.041667 0.042318 0.042969 0.043620 0.044271 0.044922 0.045573 0.046224 0.046875 0.047526 0.048177 0.048828 0.049479 0.050130 0.050781 0.051432 0.052083 0.052734 0.053385 0.054036 0.054688 0.055339 0.055990 0.056641 0.057292 0.057943 0.058594 0.059245 0.059896 0.060547 0.061198 0.061849 0.062500 0.063151 0.063802 0.064453 0.065104 0.065755 0.066406 0.067057 0.067708 0.068359 0.069010 0.069661 0.070312 0.070964 0.071615 0.072266 0.072917 0.073568 0.074219 0.074870 0.075521 0.076172 0.076823 0.077474 0.078125 0.078776 0.079427 0.080078 0.080729 0.081380 0.082031 0.082682 0.083333 0.083984 0.084635 0.085286 0.085938 0.086589 0.087240 0.087891 0.088542 0.089193 0.089844 0.090495 0.091146 0.091797 0.092448 0.093099 0.093750 0.094401 0.095052 0.095703 0.096354 0.097005 0.097656 0.098307 0.098958 0.099609 0.100260 0.100911 0.101562 0.102214 0.102865 0.103516 0.104167 0.104818 0.105469 0.106120 0.106771 0.107422 0.108073 0.108724 0.109375 0.110026 0.110677 0.111328 0.111979 0.112630 0.113281 0.113932 0.114583 0.115234 0.115885 0.116536 0.117188 0.117839 0.118490 0.119141 0.119792 0.120443 0.121094 0.121745 0.122396 0.123047 0.123698 0.124349 0.125000 0.125651 0.126302 0.126953 0.127604 0.128255 0.128906 0.129557 0.130208 0.130859 0.131510 0.132161 0.132812 0.133464 0.134115 0.134766 0.135417 0.136068 0.136719 0.137370 0.138021 0.138672 0.139323 0.139974 0.140625 0.141276 0.141927 0.142578 0.143229 0.143880 0.144531 0.145182 0.145833 0.146484 0.147135 0.147786 0.148438 0.149089 0.149740 0.150391 0.151042 0.151693 0.152344 0.152995 0.153646 0.154297 0.154948 0.155599 0.156250 0.156901 0.157552 0.158203 0.158854 0.159505 0.160156 0.160807 0.161458 0.162109 0.162760 0.163411 0.164062 0.164714 0.165365 0.166016 0.166667 0.167318 0.167969 0.168620 0.169271 0.169922 0.170573 0.171224 0.171875 0.172526 0.173177 0.173828 0.174479 0.175130 0.175781 0.176432 0.177083 0.177734 0.178385 0.179036 0.179688 0.180339 0.180990 0.181641 0.182292 0.182943 0.183594 0.184245 0.184896 0.185547 0.186198 0.186849 0.187500 0.188151 0.188802 0.189453 0.190104 0.190755 0.191406 0.192057 0.192708 0.193359 0.194010 0.194661 0.195312 0.195964 0.196615 0.197266 0.197917 0.198568 0.199219 0.199870 0.200521 0.201172 0.201823 0.202474 0.203125 0.203776 0.204427 0.205078 0.205729 0.206380 0.207031 0.207682 0.208333 0.208984 0.209635 0.210286 0.210938 0.211589 0.212240 0.212891 0.213542 0.214193 0.214844 0.215495 0.216146 0.216797 0.217448 0.218099 0.218750 0.219401 0.220052 0.220703 0.221354 0.222005 0.222656 0.223307 0.223958 0.224609 0.225260 0.225911 0.226562 0.227214 0.227865 0.228516 0.229167 0.229818 0.230469 0.231120 0.231771 0.232422 0.233073 0.233724 0.234375 0.235026 0.235677
       0.34446        0.34446        0.34446        0.34446        0.34446        0.34446        0.34446        0.34446        0.34446        0.34446        0.34446        0.34446        0.34446        0.34446        0.34446        0.34446        0.34446        0.34446        0.34446        0.34446        0.34446        0.34446        0.34446        0.34446        0.34446        0.34446        0.34446        0.34446        0.34446        0.34446        0.34446        0.34446        0.34446        0.34446        0.34446        0.34446        0.34446        0.34446        0.34446        0.34446        0.34446        0.34446        0.34446        0.34446        0.34446        0.34446        0.34446        0.34446        0.34446        0.34446        0.34446        0.44961        0.65709        0.33608        0.16637       -0.03563       -0.25847       -0.06983       -0.15783       -0.15233        0.00653       -0.11694       -0.12412       -0.05177       -0.03867       -0.13562       -0.16363       -0.31109       -0.46263       -0.54694       -0.50827       -0.41900       -0.31652       -0.47545       -0.36958       -0.49083       -0.39903       -0.44000       -0.28684       -0.27057       -0.28077       -0.16216       -0.10313       -0.07432        0.06021        0.02248        0.18791        0.17395        0.31235        0.37675        0.49799        0.51777        0.55460        0.59610        0.72134        0.61868        0.58999        0.52239        0.51790        0.60088        0.49467        0.46792        0.40303        0.30969        0.27579        0.28796        0.25971        0.15800        0.15714        0.02686        0.09384        0.08846        0.07100        0.09519        0.13126        0.21131        0.28853        0.28693        0.32287        0.46857        0.48150        0.50154        0.63862        0.63212        0.58269        0.60096        0.59745        0.46735        0.47933        0.37851        0.34261        0.28458        0.22079        0.20584        0.17907        0.13896        0.18844        0.22055        0.23250        0.25424        0.32447        0.36617        0.38455        0.47354        0.50772        0.50430        0.48350        0.57878        0.49457        0.49195        0.47396        0.38324        0.32800        0.27428        0.29014        0.21391        0.22723        0.23633        0.21677        0.22448        0.30531        0.37021        0.41191        0.44990        0.44345        0.48606        0.45461        0.46488        0.40332        0.38891        0.35306        0.37315        0.37331        0.36550        0.26425        0.31366        0.26782        0.26960        0.28608        0.34522        0.37803        0.41424        0.43743        0.46672        0.43652        0.41978        0.45566        0.37811        0.35150        0.35821        0.31194        0.33624        0.28213        0.32028        0.31282        0.32581        0.36277        0.38915        0.41430        0.43428        0.39166        0.39676        0.37594        0.39394        0.29767        0.31461        0.30822        0.24917        0.32940        0.31404        0.33243        0.35152        0.36084        0.37373        0.37544        0.44720        0.38380        0.36051        0.35366        0.30424        0.29389        0.31587        0.31479        0.34858        0.33192        0.34911        0.33143        0.39289        0.36439        0.37796        0.39956        0.38440        0.34278        0.31693        0.34051        0.31815        0.34482        0.30785        0.35121        0.35233        0.34668        0.32306        0.34653        0.32600        0.28456        0.28787        0.28746        0.31493        0.32968        0.35408        0.33253        0.32009        0.33755        0.33251        0.31259        0.29040        0.32504        0.33704        0.31959        0.29798        0.32741        0.32789        0.34003        0.31538        0.33429        0.35060        0.33204        0.33290        0.30362        0.26569        0.30209        0.33890        0.32668        0.31648        0.35857        0.32529        0.29467        0.33483        0.32524        0.30621        0.29904        0.27324        0.32619        0.34836        0.35607        0.29447        0.28572        0.29313        0.26933        0.26325        0.32213        0.31528        0.31282        0.31765        0.30309        0.27818        0.34688        0.33552        0.33823        0.31527        0.29900        0.32831        0.36435        0.39834        0.30572        0.32794        0.32936        0.34660        0.29596        0.32347        0.32284        0.25126        0.32731        0.36535        0.32450        0.33856        0.30158        0.27806        0.25586        0.29963        0.30679        0.35197        0.32527        0.27834        0.22851        0.29997        0.31537        0.27827        0.26366        0.24287        0.29148        0.26169        0.31135        0.27305        0.30095        0.31509        0.24399        0.30291        0.27200        0.19396        0.20067        0.24417        0.19131        0.24187        0.22972        0.22714        0.35969        0.26189        0.28913        0.28444        0.18783        0.24688        0.33400        0.22248        0.13091        0.26212        0.20688        0.23758        0.32685        0.10369        0.05090       -0.39383       -0.54777
2.877961 2.846858 2.815924 2.785160 2.754566 2.724143 2.693890 2.663806 2.633893 2.604150 2.574577 2.545174 2.515941 2.486878 2.457986 2.429263 2.400711 2.372328 2.344116 2.316073 2.288201 2.260499 2.232967 2.205605 2.178414 2.151392 2.124540 2.097859 2.071347 2.045006 2.018834 1.992833 1.967002 1.941341 1.915850 1.890529 1.865379 1.840398 1.815587 1.790947 1.766476 1.742176 1.718046 1.694086 1.670296 1.646676 1.623226 1.599946 1.576836 1.553897 1.531127 1.537050 1.900353 1.698111 1.032428 1.106169 0.476479 0.931836 0.577149 0.741225 0.881206 0.688436 0.599502 0.778771 0.735216 0.605387 0.567581 0.349634 0.056783 0.002776 -0.016894 -0.037181 0.350775 -0.050216 0.070601 -0.052468 0.011333 -0.042194 0.121598 0.131042 0.100496 0.213623 0.311158 0.290894 0.462326 0.387096 0.641096 0.521357 0.769605 0.739990 0.921984 1.018732 0.940470 1.051130 1.132523 1.117642 1.021820 0.869800 0.872641 0.960321 0.816879 0.795550 0.660888 0.551273 0.482113 0.464361 0.453604 0.257698 0.302222 0.111949 0.090751 0.165707 0.080058 0.079311 0.151874 0.187117 0.323689 0.324358 0.375143 0.400590 0.596027 0.429686 0.670420 0.823023 0.605389 0.667926 0.673514 0.489433 0.410639 0.386785 0.249600 0.238588 0.061866 0.096389 -0.007710 -0.008928 -0.050754 0.025656 0.067118 0.045232 0.087141 0.205711 0.229912 0.244595 0.381098 0.342247 0.357996 0.400941 0.376758 0.325128 0.302062 0.257606 0.095171 0.063421 0.002896 -0.029480 -0.087013 -0.043274 -0.051302 -0.090445 -0.063309 0.064854 0.178262 0.186922 0.195738 0.240336 0.296488 0.209304 0.205791 0.203845 0.094489 0.073559 0.176940 0.075890 0.024713 -0.005505 0.043401 -0.060948 0.006159 0.000060 0.119903 0.101520 0.132434 0.200093 0.238530 0.095077 0.169930 0.163478 0.090517 0.047851 0.035247 0.043609 -0.017906 -0.009269 -0.009902 -0.010027 0.051867 0.059448 0.096897 0.164292 0.122586 0.064053 0.066639 0.109333 0.041008 -0.076331 0.001491 -0.051868 -0.075812 0.003104 -0.025120 0.049130 0.006352 0.037078 0.087996 0.136610 0.166782 0.041469 0.071201 0.064280 -0.066727 -0.000123 0.014924 0.012941 0.059408 0.050204 0.027329 0.060882 0.084909 0.083121 0.112096 0.137431 0.053106 0.048681 0.031771 0.029613 0.014187 0.067924 0.005875 0.075515 0.062601 0.006865 -0.001709 0.052567 0.001826 -0.064052 -0.027606 -0.040159 -0.015593 0.033399 0.062256 0.022372 -0.007717 0.037085 0.020412 0.025508 -0.012723 0.025086 0.036213 0.023403 -0.009370 0.029538 0.024216 0.041759 0.022824 0.079065 0.058578 0.052373 0.040474 -0.004813 -0.074241 0.021184 0.051029 0.052283 0.009567 0.097038 0.018413 -0.033194 0.030427 0.008148 0.012709 -0.062991 -0.054680 0.061941 0.030148 0.021968 -0.050534 -0.038493 -0.031621 -0.106179 -0.034560 -0.025139 0.014648 -0.000198 -0.015478 -0.044853 -0.057311 0.025078 -0.025000 -0.081169 -0.004506 -0.093987 -0.009965 0.026204 0.045804 -0.079397 -0.067802 -0.002487 -0.057204 -0.131407 -0.056091 -0.052230 -0.147015 -0.037377 0.043103 -0.059239 -0.066202 -0.053969 -0.085678 -0.093678 -0.007561 -0.077502 0.076123 -0.046452 -0.041325 -0.107780 0.009002 -0.015803 -0.057340 0.002578 -0.119734 0.082729 -0.051227 0.077238 -0.026231 0.017372 0.129465 -0.065299 0.118347 -0.006390 -0.101673 -0.048657 -0.020593 -0.060613 -0.090628 0.038752 -0.013899 0.197251 -0.021358 0.120711 0.037504 -0.062899 0.021963 0.153717 0.262842 0.058280 0.339510 0.306331 0.246144 0.448179 -0.005114 0.074572 -0.716420
0.072396 0.072908 0.074445 0.077005 0.080589 0.085195 0.090822 0.097468 0.105132 0.113810 0.123498 0.134193 0.145888 0.158577 0.172252 0.186902 0.202517 0.219083 0.236584 0.255002 0.274316 0.294502 0.315531 0.337374 0.359995 0.383356 0.407411 0.432114 0.457410 0.483241 0.509542 0.536242 0.563265 0.590528 0.617941 0.645407 0.672822 0.700078 0.727055 0.753629 0.779668 0.805034 0.829581 0.853158 0.875606 0.896760 0.916454 0.934512 0.950758 0.965012 0.977090 0.986810 0.993989 0.998445 1.000000 0.998480 0.993718 0.985554 0.973840 0.958437 0.939223 0.916092 0.888954 0.857743 0.822414 0.782950 0.739360 0.691683 0.639992 0.584394 0.525029 0.462080 0.395766 0.326348 0.254128 0.179450 0.102700 0.024306 0.055263 0.135500 0.215860 0.295762 0.374597 0.451724 0.526484 0.598197 0.666173 0.729718 0.788140 0.840756 0.886906 0.925955 0.957306 0.980412 0.994780 0.999987 0.995685 0.981617 0.957617 0.923630 0.879708 0.826029 0.762892 0.690730 0.610105 0.521717 0.426395 0.325100 0.218918 0.109048 0.003202 0.116431 0.229162 0.339857 0.446938 0.548812 0.643891 0.730619 0.807507 0.873148 0.926259 0.965700 0.990510 0.999927 0.993419 0.970702 0.931762 0.876868 0.806585 0.721780 0.623617 0.513558 0.393342 0.264970 0.130681 0.007089 0.145739 0.282556 0.414764 0.539579 0.654270 0.756225 0.843011 0.912444 0.962645 0.992101 0.999720 0.984876 0.947448 0.887844 0.807020 0.706479 0.588260 0.454911 0.309449 0.155296 0.003785 0.163785 0.320535 0.469821 0.607501 0.729615 0.832517 0.912984 0.968334 0.996527 0.996251 0.966998 0.909106 0.823792 0.713146 0.580104 0.428388 0.262425 0.087222 0.091766 0.268803 0.438054 0.593774 0.730517 0.843325 0.927934 0.980942 0.999967 0.983777 0.932374 0.847045 0.730359 0.586124 0.419286 0.235783 0.042349 0.153714 0.344815 0.523356 0.682045 0.814202 0.914057 0.977026 0.999941 0.981238 0.921081 0.821416 0.685945 0.520031 0.330512 0.125447 0.086209 0.294985 0.491305 0.665949 0.810479 0.917679 0.981940 0.999581 0.969096 0.891298 0.769357 0.608716 0.416890 0.203148 0.021899 0.246826 0.459944 0.649927 0.806419 0.920626 0.985841 0.997876 0.955373 0.859964 0.716280 0.531764 0.316353 0.081964 0.158132 0.390043 0.600069 0.775510 0.905469 0.981563 0.998505 0.954524 0.851578 0.695339 0.494940 0.262502 0.012434 0.239423 0.476795 0.684023 0.847126 0.954764 0.999093 0.976380 0.887374 0.737390 0.536047 0.296734 0.035760 0.228722 0.477954 0.693913 0.860638 0.965449 0.999968 0.960854 0.850192 0.675471 0.449163 0.187902 0.088690 0.359433 0.603230 0.800696 0.935754 0.997003 0.978744 0.881591 0.712586 0.484775 0.216282 0.071063 0.353468 0.607143 0.810303 0.945101 0.999254 0.967244 0.850965 0.659742 0.409682 0.122397 0.176784 0.461043 0.704454 0.884377 0.983646 0.992265 0.908530 0.739373 0.499910 0.212199 0.096719 0.397321 0.660395 0.859925 0.975707 0.995494 0.916394 0.745370 0.498768 0.200859 0.118455 0.426595 0.691634 0.885606 0.987556 0.985891 0.879821 0.679683 0.406066 0.087820 0.240911 0.544311 0.788805 0.946813 0.999970 0.941378 0.776625 0.523425 0.209835 0.128716 0.453408 0.726434 0.915473 0.997584 0.962128 0.812284 0.564961 0.249036 0.097882 0.433878 0.717755 0.914139 0.997979 0.957877 0.797794 0.536861 0.207255 0.149635 0.488348 0.765117 0.943577 0.999673 0.925037 0.728415 0.434829 0.082566 0.281692 0.608998 0.854749 0.984824
1.000000 1.000000 1.000000 1.000000 1.000000 1.000000 1.000000 1.000000 1.000000 1.000000 1.000000 1.000000 1.000000 1.000000 1.000000 1.000000 1.000000 1.000000 1.000000 1.000000 1.000000 1.000000 1.000000 1.000000 1.000000 1.000000 1.000000 1.000000 1.000000 1.000000 1.000000 1.000000 1.000000 1.000000 1.000000 1.000000 1.000000 1.000000 1.000000 1.000000 1.000000 1.000000 1.000000 1.000000 1.000000 1.000000 1.000000 1.000000 1.000000 1.000000 1.000000 1.000000 0.873207 0.873207 0.873207 0.880406 0.880406 0.880406 0.880406 0.880406 0.880406 0.880406 0.880406 0.880406 0.880406 0.880406 0.880406 0.880406 0.880406 0.880406 0.880406 0.880406 0.880406 0.880406 0.880406 0.880406 0.880406 0.880406 0.880406 0.880406 0.880406 0.880406 0.880406 0.880406 0.880406 0.880406 0.880406 0.880406 0.880406 0.880406 0.880406 0.880406 0.880406 0.880406 0.880406 0.880406 0.886203 0.889010 0.890675 0.892511 0.893927 0.891259 0.890344 0.889762 0.889989 0.891287 0.901886 0.916840 0.931713 0.948335 0.955579 0.957256 0.960514 0.960463 0.966902 0.974845 0.973561 0.974196 0.974514 0.975837 0.960788 0.958994 0.953802 0.949014 0.978446 0.961022 0.958432 0.950983 0.944465 0.943202 0.942971 0.942761 0.943128 0.943829 0.944812 0.944663 0.943549 0.943146 0.940502 0.929389 0.925248 0.925085 0.925457 0.917754 0.901030 0.894775 0.892764 0.892485 0.888261 0.888525 0.888855 0.889931 0.887662 0.888170 0.865789 0.862638 0.860658 0.856559 0.854556 0.856871 0.857309 0.861695 0.859357 0.847144 0.823055 0.808760 0.794439 0.767712 0.752134 0.761915 0.763448 0.759680 0.758550 0.755554 0.752827 0.752988 0.746807 0.749649 0.748036 0.742957 0.730919 0.727109 0.711800 0.706463 0.701364 0.678625 0.706223 0.718694 0.718397 0.716361 0.716353 0.709369 0.717673 0.707505 0.698543 0.690302 0.682318 0.675290 0.663155 0.655976 0.671046 0.671817 0.654375 0.663188 0.689025 0.685941 0.691938 0.697383 0.704686 0.702691 0.694389 0.653747 0.642937 0.660949 0.659088 0.656195 0.657311 0.654519 0.652650 0.651027 0.646786 0.611161 0.587730 0.593552 0.601111 0.621654 0.635548 0.644515 0.607360 0.588996 0.541456 0.499938 0.516129 0.503597 0.494095 0.498462 0.478025 0.473120 0.476489 0.485248 0.485844 0.513367 0.511924 0.501617 0.496418 0.481789 0.484798 0.479500 0.447052 0.455143 0.430906 0.414190 0.433573 0.458141 0.425432 0.453526 0.482625 0.437407 0.435200 0.438104 0.394655 0.366853 0.342752 0.292332 0.291515 0.193724 0.175959 0.170215 0.189993 0.185403 0.139831 0.142259 0.157268 0.137499 0.103491 0.074448 0.052137 -0.005580 -0.016120 -0.010593 -0.018613 -0.034046 -0.060848 -0.064885 -0.026112 -0.018398 -0.031927 -0.012628 -0.039170 -0.039516 -0.040399 -0.081333 -0.102064 -0.128445 -0.130257 -0.186891 -0.174571 -0.176594 -0.164671 -0.206394 -0.214708 -0.200833 -0.180719 -0.215724 -0.225882 -0.238923 -0.225398 -0.231717 -0.202499 -0.185503 -0.182616 -0.188429 -0.207119 -0.178516 -0.180930 -0.207638 -0.191615 -0.206649 -0.202077 -0.181976 -0.168908 -0.140284 -0.096012 -0.070943 -0.075930 -0.083648 -0.108798 -0.079575 -0.076465 -0.084902 -0.103000 -0.136190 -0.146944 -0.146944 -0.146944 -0.146944 -0.146944 -0.140629 -0.140629 -0.140629 -0.140629 -0.140629 -0.140629 -0.140629 -0.140629 -0.140629 -0.069341 -0.069341 -0.069341 -0.069341 -0.069341 -0.069341 -0.069341 -0.069341 -0.069341 -0.069341 -0.069341 -0.069341 -0.069341 -0.069341 -0.069341 -0.069341 -0.069341
0.000000 0.000000 0.000000 0.000000 0.000000 0.000000 0.000000 0.000000 0.000000 0.000000 0.000000 0.000000 0.000000 0.000000 0.000000 0.000000 0.000000 0.000000 0.000000 0.000000 0.000000 0.000000 0.000000 0.000000 0.000000 0.000000 0.000000 0.000000 0.000000 0.000000 0.000000 0.000000 0.000000 0.000000 0.000000 0.000000 0.000000 0.000000 0.000000 0.000000 0.000000 0.000000 0.000000 0.000000 0.000000 0.000000 0.000000 0.000000 0.000000 0.000000 0.000000 0.000000 0.180334 0.180334 0.180334 0.199007 0.199007 0.199007 0.199007 0.199007 0.199007 0.199007 0.199007 0.199007 0.199007 0.199007 0.199007 0.199007 0.199007 0.199007 0.199007 0.199007 0.199007 0.199007 0.199007 0.199007 0.199007 0.199007 0.199007 0.199007 0.199007 0.199007 0.199007 0.199007 0.199007 0.199007 0.199007 0.199007 0.199007 0.199007 0.199007 0.199007 0.199007 0.199007 0.199007 0.199007 0.230940 0.230940 0.230940 0.230940 0.230940 0.230940 0.230940 0.230940 0.230940 0.230940 0.230940 0.230940 0.230940 0.230940 0.230940 0.230940 0.230940 0.230940 0.230940 0.230940 0.230940 0.230940 0.230940 0.230940 0.230940 0.230940 0.230940 0.230940 0.248069 0.248069 0.248069 0.248069 0.248069 0.248069 0.248069 0.248069 0.248069 0.248069 0.248069 0.248069 0.248069 0.248069 0.248069 0.248069 0.248069 0.248069 0.248069 0.248069 0.248069 0.248069 0.251976 0.251976 0.251976 0.251976 0.251976 0.251976 0.251976 0.251976 0.251976 0.251976 0.251976 0.251976 0.251976 0.251976 0.251976 0.251976 0.251976 0.251976 0.251976 0.251976 0.256074 0.256074 0.256074 0.256074 0.256074 0.256074 0.256074 0.256074 0.256074 0.256074 0.256074 0.256074 0.256074 0.256074 0.256074 0.256074 0.256074 0.256074 0.264906 0.264906 0.264906 0.264906 0.264906 0.264906 0.264906 0.264906 0.264906 0.264906 0.264906 0.264906 0.264906 0.264906 0.264906 0.264906 0.269680 0.269680 0.269680 0.269680 0.269680 0.269680 0.269680 0.269680 0.269680 0.269680 0.269680 0.269680 0.269680 0.269680 0.264906 0.264906 0.264906 0.264906 0.264906 0.264906 0.264906 0.264906 0.264906 0.264906 0.264906 0.264906 0.264906 0.264906 0.264906 0.264906 0.264906 0.264906 0.264906 0.264906 0.264906 0.264906 0.264906 0.264906 0.264906 0.264906 0.264906 0.260378 0.260378 0.260378 0.260378 0.260378 0.260378 0.260378 0.260378 0.260378 0.260378 0.260378 0.260378 0.260378 0.274721 0.274721 0.274721 0.274721 0.274721 0.274721 0.274721 0.274721 0.274721 0.274721 0.274721 0.260378 0.260378 0.260378 0.260378 0.260378 0.260378 0.260378 0.260378 0.260378 0.260378 0.260378 0.260378 0.264906 0.264906 0.264906 0.264906 0.264906 0.264906 0.264906 0.264906 0.264906 0.264906 0.264906 0.269680 0.269680 0.269680 0.269680 0.269680 0.269680 0.269680 0.269680 0.269680 0.269680 0.264906 0.264906 0.264906 0.264906 0.264906 0.264906 0.264906 0.264906 0.264906 0.264906 0.260378 0.260378 0.260378 0.260378 0.260378 0.260378 0.260378 0.260378 0.260378 0.260378 0.264906 0.264906 0.264906 0.264906 0.264906 0.264906 0.264906 0.264906 0.264906 0.251976 0.251976 0.251976 0.251976 0.251976 0.251976 0.251976 0.251976 0.251976 0.251976 0.256074 0.256074 0.256074 0.256074 0.256074 0.256074 0.256074 0.256074 0.256074 0.269680 0.269680 0.269680 0.269680 0.269680 0.269680 0.269680 0.269680 0.269680 0.269680 0.269680 0.269680 0.269680 0.269680 0.269680 0.269680 0.269680
