# Output from CTFFind version 4.1.9, run on 2019-11-03 20:02:46
# Input file: stack11_bm3d_averaged_1_7.5_0_50_half.mrc ; Number of micrographs: 1
# Pixel size: 3.000 Angstroms ; acceleration voltage: 300.0 keV ; spherical aberration: 0.00 mm ; amplitude contrast: 0.07
# Box size: 512 pixels ; min. res.: 30.0 Angstroms ; max. res.: 5.0 Angstroms ; min. def.: 5000.0 um; max. def. 50000.0 um; num. frames averaged: 1
# 6 lines per micrograph: #1 - spatial frequency (1/Angstroms); #2 - 1D rotational average of spectrum (assuming no astigmatism); #3 - 1D rotational average of spectrum; #4 - CTF fit; #5 - cross-correlation between spectrum and CTF fit; #6 - 2sigma of expected cross correlation of noise
0.000000 0.000651 0.001302 0.001953 0.002604 0.003255 0.003906 0.004557 0.005208 0.005859 0.006510 0.007161 0.007812 0.008464 0.009115 0.009766 0.010417 0.011068 0.011719 0.012370 0.013021 0.013672 0.014323 0.014974 0.015625 0.016276 0.016927 0.017578 0.018229 0.018880 0.019531 0.020182 0.020833 0.021484 0.022135 0.022786 0.023438 0.024089 0.024740 0.025391 0.026042 0.026693 0.027344 0.027995 0.028646 0.029297 0.029948 0.030599 0.031250 0.031901 0.032552 0.033203 0.033854 0.034505 0.035156 0.035807 0.036458 0.037109 0.037760 0.038411 0.039062 0.039714 0.040365 0.041016 0.041667 0.042318 0.042969 0.043620 0.044271 0.044922 0.045573 0.046224 0.046875 0.047526 0.048177 0.048828 0.049479 0.050130 0.050781 0.051432 0.052083 0.052734 0.053385 0.054036 0.054688 0.055339 0.055990 0.056641 0.057292 0.057943 0.058594 0.059245 0.059896 0.060547 0.061198 0.061849 0.062500 0.063151 0.063802 0.064453 0.065104 0.065755 0.066406 0.067057 0.067708 0.068359 0.069010 0.069661 0.070312 0.070964 0.071615 0.072266 0.072917 0.073568 0.074219 0.074870 0.075521 0.076172 0.076823 0.077474 0.078125 0.078776 0.079427 0.080078 0.080729 0.081380 0.082031 0.082682 0.083333 0.083984 0.084635 0.085286 0.085938 0.086589 0.087240 0.087891 0.088542 0.089193 0.089844 0.090495 0.091146 0.091797 0.092448 0.093099 0.093750 0.094401 0.095052 0.095703 0.096354 0.097005 0.097656 0.098307 0.098958 0.099609 0.100260 0.100911 0.101562 0.102214 0.102865 0.103516 0.104167 0.104818 0.105469 0.106120 0.106771 0.107422 0.108073 0.108724 0.109375 0.110026 0.110677 0.111328 0.111979 0.112630 0.113281 0.113932 0.114583 0.115234 0.115885 0.116536 0.117188 0.117839 0.118490 0.119141 0.119792 0.120443 0.121094 0.121745 0.122396 0.123047 0.123698 0.124349 0.125000 0.125651 0.126302 0.126953 0.127604 0.128255 0.128906 0.129557 0.130208 0.130859 0.131510 0.132161 0.132812 0.133464 0.134115 0.134766 0.135417 0.136068 0.136719 0.137370 0.138021 0.138672 0.139323 0.139974 0.140625 0.141276 0.141927 0.142578 0.143229 0.143880 0.144531 0.145182 0.145833 0.146484 0.147135 0.147786 0.148438 0.149089 0.149740 0.150391 0.151042 0.151693 0.152344 0.152995 0.153646 0.154297 0.154948 0.155599 0.156250 0.156901 0.157552 0.158203 0.158854 0.159505 0.160156 0.160807 0.161458 0.162109 0.162760 0.163411 0.164062 0.164714 0.165365 0.166016 0.166667 0.167318 0.167969 0.168620 0.169271 0.169922 0.170573 0.171224 0.171875 0.172526 0.173177 0.173828 0.174479 0.175130 0.175781 0.176432 0.177083 0.177734 0.178385 0.179036 0.179688 0.180339 0.180990 0.181641 0.182292 0.182943 0.183594 0.184245 0.184896 0.185547 0.186198 0.186849 0.187500 0.188151 0.188802 0.189453 0.190104 0.190755 0.191406 0.192057 0.192708 0.193359 0.194010 0.194661 0.195312 0.195964 0.196615 0.197266 0.197917 0.198568 0.199219 0.199870 0.200521 0.201172 0.201823 0.202474 0.203125 0.203776 0.204427 0.205078 0.205729 0.206380 0.207031 0.207682 0.208333 0.208984 0.209635 0.210286 0.210938 0.211589 0.212240 0.212891 0.213542 0.214193 0.214844 0.215495 0.216146 0.216797 0.217448 0.218099 0.218750 0.219401 0.220052 0.220703 0.221354 0.222005 0.222656 0.223307 0.223958 0.224609 0.225260 0.225911 0.226562 0.227214 0.227865 0.228516 0.229167 0.229818 0.230469 0.231120 0.231771 0.232422 0.233073 0.233724 0.234375 0.235026 0.235677
       0.34653        0.34653        0.34653        0.34653        0.34653        0.34653        0.34653        0.34653        0.34653        0.34653        0.34653        0.34653        0.34653        0.34653        0.34653        0.34653        0.34653        0.34653        0.34653        0.34653        0.34653        0.34653        0.34653        0.34653        0.34653        0.34653        0.34653        0.34653        0.34653        0.34653        0.34653        0.34653        0.34653        0.34653        0.34653        0.34653        0.34654        0.34653        0.34653        0.34653        0.34653        0.34653        0.34653        0.34653        0.34653        0.34653        0.34653        0.34653        0.34653        0.34653        0.34653        0.69982        0.85730        0.53888        0.10557       -0.02870       -0.38299       -0.17917       -0.28822       -0.11682       -0.05452       -0.11310       -0.05319       -0.16416       -0.20437       -0.21205       -0.30561       -0.31690       -0.44181       -0.36126       -0.42370       -0.41908       -0.39154       -0.40285       -0.44262       -0.50423       -0.55694       -0.54603       -0.51986       -0.35385       -0.32244       -0.28812       -0.26819       -0.18430       -0.16768        0.06317        0.14494        0.17873        0.26851        0.38158        0.45833        0.52378        0.60308        0.60025        0.58607        0.70144        0.80225        0.70192        0.74520        0.61807        0.56872        0.48424        0.43444        0.51298        0.39935        0.27590        0.11914        0.11706        0.09806       -0.00970        0.04998        0.05606        0.01585        0.02924        0.03479        0.23669        0.27237        0.29704        0.43654        0.45450        0.41575        0.60308        0.61686        0.63212        0.72252        0.67510        0.64753        0.65450        0.55994        0.45955        0.41933        0.30563        0.27449        0.18787        0.13832        0.05283        0.06966        0.08087        0.10210        0.16349        0.24865        0.30223        0.42694        0.46671        0.48173        0.56228        0.60120        0.63666        0.61348        0.55695        0.46368        0.47374        0.37903        0.28072        0.21458        0.15657        0.17558        0.15528        0.16613        0.19623        0.32689        0.34175        0.41142        0.44959        0.42494        0.47866        0.56431        0.55677        0.50546        0.45799        0.41566        0.37646        0.34526        0.31304        0.26919        0.24889        0.26012        0.25953        0.22828        0.31259        0.36685        0.38499        0.43967        0.45623        0.46706        0.42955        0.41486        0.40285        0.36487        0.34270        0.27611        0.28545        0.27149        0.25144        0.29929        0.29680        0.35484        0.38608        0.43890        0.47696        0.40662        0.42263        0.43300        0.41348        0.35217        0.33175        0.29332        0.32972        0.27883        0.32698        0.31852        0.33662        0.34469        0.36723        0.31220        0.38729        0.41186        0.38199        0.35385        0.36999        0.32113        0.29774        0.31101        0.32024        0.30935        0.32163        0.34849        0.36097        0.34241        0.36401        0.36252        0.42758        0.39346        0.34229        0.35145        0.30139        0.29733        0.32873        0.32179        0.33228        0.34567        0.34656        0.39039        0.33216        0.33123        0.33998        0.35241        0.30564        0.31381        0.28447        0.30396        0.33441        0.30472        0.33466        0.36167        0.37506        0.30184        0.34756        0.30194        0.29185        0.28035        0.24898        0.31106        0.31030        0.34380        0.34110        0.34790        0.32978        0.35075        0.31746        0.34698        0.30520        0.32870        0.29675        0.33951        0.33625        0.37787        0.33526        0.33798        0.33688        0.29426        0.27833        0.31535        0.25325        0.23228        0.34113        0.32556        0.37044        0.34886        0.36603        0.33917        0.33460        0.35478        0.26841        0.27392        0.32174        0.30211        0.31212        0.31295        0.34001        0.32930        0.28894        0.29328        0.34660        0.32390        0.32606        0.30422        0.32142        0.33733        0.39134        0.36725        0.32368        0.28526        0.30404        0.29147        0.31208        0.28252        0.27533        0.31305        0.32857        0.34715        0.35742        0.33488        0.29899        0.30296        0.27374        0.28211        0.25866        0.30620        0.25877        0.25248        0.28553        0.28039        0.26204        0.29325        0.22301        0.21980        0.23659        0.19588        0.27751        0.35228        0.25559        0.25017        0.32037        0.29935        0.30677        0.31495        0.27777        0.25572        0.19715        0.21160        0.21504        0.29417        0.23764        0.28558        0.36904        0.38014        0.26240        0.19207        0.14463       -0.01781       -0.14683       -0.62953
2.731883 2.702877 2.674030 2.645341 2.616810 2.588436 2.560221 2.532163 2.504264 2.476522 2.448939 2.421513 2.394246 2.367136 2.340184 2.313391 2.286755 2.260277 2.233957 2.207795 2.181792 2.155946 2.130258 2.104728 2.079356 2.054142 2.029085 2.004187 1.979447 1.954865 1.930440 1.906174 1.882066 1.858116 1.834323 1.810689 1.787212 1.763894 1.740733 1.717730 1.694886 1.672199 1.649671 1.627300 1.605087 1.583032 1.561135 1.539396 1.517815 1.496393 1.475128 1.687046 2.102067 1.669637 1.159817 1.025919 0.443637 0.827342 0.544760 0.821226 0.794800 0.796045 0.736020 0.737456 0.581397 0.546269 0.488065 0.414704 0.243153 0.352311 0.192770 0.321224 0.211107 0.206093 0.181228 0.040753 -0.000986 0.018236 -0.068611 0.129627 0.227285 0.183761 0.175550 0.314159 0.178334 0.509063 0.609557 0.621274 0.637445 0.854271 0.814809 0.919952 0.919500 1.012633 0.984580 1.063258 1.142649 1.017364 1.139944 0.886729 0.906142 0.777243 0.638318 0.790462 0.676662 0.487528 0.325849 0.245299 0.264843 0.145907 0.137010 0.163236 0.107343 0.113781 0.082416 0.240663 0.339162 0.331725 0.465246 0.530556 0.405411 0.580593 0.714400 0.623315 0.700146 0.690941 0.700775 0.627328 0.580105 0.474197 0.355675 0.270338 0.214048 0.092042 0.112997 -0.117614 -0.048222 -0.061548 -0.083332 -0.016563 0.124735 0.070644 0.237989 0.299809 0.327672 0.360186 0.480618 0.450790 0.465259 0.475264 0.296078 0.284798 0.278472 0.083467 0.044852 -0.081704 -0.016782 -0.061764 -0.095251 -0.064782 0.040040 0.093140 0.124229 0.221959 0.215468 0.217931 0.301370 0.331951 0.435559 0.248259 0.225564 0.222060 0.139600 0.142369 0.117561 -0.004418 0.014182 0.077776 -0.011350 0.042592 0.130143 0.131297 0.205672 0.226673 0.247187 0.157868 0.205863 0.125670 0.118466 0.114220 0.024436 -0.025866 -0.001661 -0.020057 -0.049837 0.054622 0.002919 0.104199 0.134542 0.190291 0.153748 0.116806 0.135382 0.153467 0.106039 0.033182 -0.026092 0.024810 0.029962 -0.044737 0.039052 0.018190 0.046713 0.038455 0.052967 0.021891 0.119832 0.111743 0.044089 0.034478 0.039594 0.003821 -0.029685 0.007294 0.001587 -0.005922 0.000906 0.058495 0.052137 0.036612 0.068605 0.060590 0.163233 0.063075 0.042033 0.043257 -0.034142 0.013263 0.047568 0.008178 0.031762 0.055657 0.076941 0.058023 0.041294 0.008147 0.078660 0.029801 0.019410 0.025641 -0.004431 0.030921 0.027788 0.020667 0.069436 0.074865 0.080233 0.042228 0.054551 0.020767 0.017462 -0.026898 -0.023059 0.038293 0.051823 0.078225 0.078402 0.065213 0.068823 0.093840 0.041335 0.084933 0.052404 0.045454 0.017668 0.102548 0.063384 0.125372 0.060592 0.068667 0.088630 0.026413 0.002322 0.082687 -0.038688 -0.030588 0.086063 0.041333 0.153854 0.086960 0.085391 0.063125 0.024435 0.086152 -0.028403 -0.023629 0.042535 0.027636 0.027691 0.010468 0.097203 0.024634 -0.015681 0.046809 0.035688 0.051092 0.053387 -0.006877 0.049968 0.043821 0.108996 0.060518 0.028334 -0.029688 -0.032427 -0.004122 0.011485 -0.055900 -0.018971 -0.001407 0.005726 0.041729 0.060812 0.005564 -0.029780 -0.026703 -0.017419 -0.061524 -0.042973 -0.038116 -0.127559 -0.091702 -0.065550 -0.099766 -0.107157 -0.031171 -0.149950 -0.099341 -0.116812 -0.195162 -0.069550 0.059383 -0.076522 -0.128139 0.048921 0.018224 -0.032390 0.066644 -0.023752 -0.004526 -0.078797 -0.043125 0.051475 0.136415 0.049500 0.134486 0.160996 0.475900 0.210275 0.330914 0.181100 -0.022818 -0.686429
0.072396 0.072899 0.074408 0.076923 0.080443 0.084967 0.090495 0.097023 0.104551 0.113075 0.122592 0.133098 0.144588 0.157054 0.170489 0.184884 0.200229 0.216509 0.233710 0.251815 0.270804 0.290653 0.311337 0.332825 0.355086 0.378081 0.401769 0.426105 0.451036 0.476507 0.502457 0.528819 0.555519 0.582478 0.609612 0.636827 0.664025 0.691102 0.717944 0.744432 0.770441 0.795839 0.820485 0.844234 0.866935 0.888430 0.908556 0.927147 0.944031 0.959035 0.971980 0.982689 0.990984 0.996687 0.999623 0.999621 0.996514 0.990142 0.980356 0.967016 0.949994 0.929178 0.904471 0.875798 0.843101 0.806350 0.765536 0.720683 0.671840 0.619091 0.562552 0.502377 0.438756 0.371917 0.302127 0.229695 0.154970 0.078340 0.000235 0.078877 0.158491 0.238066 0.317028 0.394776 0.470681 0.544095 0.614353 0.680782 0.742707 0.799455 0.850365 0.894798 0.932143 0.961828 0.983327 0.996172 0.999961 0.994369 0.979156 0.954176 0.919385 0.874850 0.820753 0.757400 0.685221 0.604775 0.516750 0.421962 0.321353 0.215983 0.107025 0.004247 0.116468 0.228199 0.337944 0.444167 0.545315 0.639844 0.726238 0.803042 0.868882 0.922498 0.962773 0.988751 0.999674 0.994998 0.974421 0.937894 0.885646 0.818184 0.736310 0.641113 0.533966 0.416519 0.290675 0.158571 0.022543 0.114908 0.251159 0.383518 0.509270 0.625738 0.730347 0.820674 0.894521 0.949969 0.985437 0.999734 0.992107 0.962279 0.910477 0.837452 0.744486 0.633383 0.506447 0.366452 0.216588 0.060398 0.098299 0.255495 0.407094 0.549018 0.677323 0.788308 0.878637 0.945444 0.986438 0.999995 0.985232 0.942064 0.871245 0.774374 0.653886 0.513007 0.355688 0.186509 0.010554 0.166724 0.339679 0.502644 0.650119 0.776969 0.878609 0.951186 0.991740 0.998347 0.970221 0.907794 0.812737 0.687956 0.537520 0.366560 0.181111 0.012087 0.205815 0.392655 0.565258 0.716647 0.840513 0.931489 0.985407 0.999512 0.972629 0.905263 0.799642 0.659679 0.490857 0.300052 0.095269 0.114678 0.320523 0.512973 0.683111 0.822842 0.925283 0.985138 0.998997 0.965562 0.885780 0.762870 0.602236 0.411273 0.199053 0.024075 0.246970 0.458262 0.646915 0.802834 0.917419 0.984070 0.998606 0.959567 0.868373 0.729339 0.549521 0.338401 0.107428 0.130583 0.362134 0.573821 0.753114 0.889116 0.973266 0.999917 0.966763 0.875074 0.729723 0.538991 0.314139 0.068798 0.181836 0.421927 0.635990 0.809925 0.931954 0.993477 0.989724 0.920184 0.788750 0.603581 0.376661 0.123075 0.139964 0.394244 0.621829 0.806326 0.934111 0.995379 0.984954 0.902800 0.754145 0.549244 0.302734 0.032644 0.240875 0.497049 0.716052 0.880576 0.977239 0.997743 0.939658 0.806759 0.608888 0.361300 0.083557 0.201964 0.471847 0.703578 0.877423 0.978180 0.996576 0.930198 0.783871 0.569409 0.304767 0.012589 0.281661 0.551905 0.773773 0.926843 0.996580 0.975805 0.865530 0.675049 0.421273 0.127308 0.179567 0.470412 0.717340 0.896233 0.989163 0.986272 0.886928 0.699994 0.443156 0.141362 0.175540 0.475693 0.728453 0.907535 0.993835 0.977562 0.859461 0.650971 0.373245 0.055107 0.269858 0.566811 0.803427 0.953436 0.999661 0.936083 0.768757 0.515383 0.203573 0.132067 0.453707 0.724559 0.913123 0.996926 0.965334 0.821028 0.579968 0.269777 0.073311 0.408603 0.695761 0.899683 0.994885 0.968814 0.823643 0.576309 0.256693 0.095871 0.437344 0.724479 0.920331 0.999109 0.949724 0.777506 0.503816 0.163579 0.199037
1.000000 1.000000 1.000000 1.000000 1.000000 1.000000 1.000000 1.000000 1.000000 1.000000 1.000000 1.000000 1.000000 1.000000 1.000000 1.000000 1.000000 1.000000 1.000000 1.000000 1.000000 1.000000 1.000000 1.000000 1.000000 1.000000 1.000000 1.000000 1.000000 1.000000 1.000000 1.000000 1.000000 1.000000 1.000000 1.000000 1.000000 1.000000 1.000000 1.000000 1.000000 1.000000 1.000000 1.000000 1.000000 1.000000 1.000000 1.000000 1.000000 1.000000 1.000000 1.000000 0.915285 0.915285 0.915285 0.911339 0.911339 0.911339 0.911339 0.911339 0.911339 0.911339 0.911339 0.911339 0.911339 0.911339 0.911339 0.911339 0.911339 0.911339 0.911339 0.911339 0.911339 0.911339 0.911339 0.911339 0.911339 0.911339 0.911339 0.911339 0.911339 0.911339 0.911339 0.911339 0.911339 0.911339 0.911339 0.911339 0.911339 0.911339 0.911339 0.911339 0.911339 0.911339 0.911339 0.911339 0.939758 0.941184 0.949544 0.949063 0.948521 0.946548 0.945280 0.945071 0.944987 0.945340 0.946076 0.947071 0.953285 0.954221 0.958624 0.961347 0.961320 0.963066 0.965043 0.964688 0.956418 0.956169 0.954728 0.954009 0.956124 0.954775 0.953555 0.954033 0.952651 0.956014 0.955586 0.954385 0.952753 0.951167 0.948694 0.948273 0.948042 0.948851 0.948935 0.950516 0.953547 0.953720 0.953466 0.950737 0.950335 0.951543 0.951049 0.952832 0.940729 0.940006 0.938482 0.938465 0.941068 0.940925 0.940826 0.941746 0.941451 0.941374 0.941522 0.935782 0.935504 0.928589 0.924702 0.923532 0.917925 0.913845 0.916492 0.919147 0.920273 0.920673 0.911191 0.908401 0.909463 0.908228 0.909614 0.910190 0.911329 0.911691 0.911616 0.906549 0.897169 0.895652 0.886476 0.889155 0.885300 0.882631 0.879822 0.871357 0.862932 0.874911 0.862001 0.824861 0.828332 0.833095 0.826977 0.823979 0.826868 0.827635 0.832400 0.825737 0.824561 0.818558 0.805315 0.802354 0.796854 0.781828 0.777118 0.767332 0.757210 0.751037 0.773971 0.767877 0.779432 0.783573 0.783227 0.779220 0.769327 0.757789 0.758158 0.756944 0.752521 0.728121 0.719967 0.720074 0.718291 0.705347 0.708032 0.697046 0.697072 0.683810 0.688674 0.694464 0.697894 0.693087 0.686606 0.678572 0.674016 0.687834 0.700982 0.693370 0.689948 0.699317 0.690275 0.684179 0.674959 0.678366 0.669732 0.666147 0.667581 0.697456 0.671461 0.661301 0.666423 0.666053 0.663626 0.663447 0.642117 0.637489 0.614401 0.631867 0.635756 0.650102 0.652472 0.656134 0.666768 0.672772 0.683450 0.688244 0.686030 0.645173 0.649903 0.667130 0.675084 0.665012 0.655273 0.649455 0.639181 0.676218 0.660516 0.619231 0.614764 0.615640 0.569432 0.548350 0.546528 0.547695 0.575266 0.573731 0.557549 0.531670 0.533598 0.533449 0.528910 0.527969 0.507026 0.517099 0.500574 0.477843 0.491149 0.499735 0.498550 0.482603 0.476250 0.490084 0.471105 0.494176 0.473075 0.456526 0.472517 0.471879 0.460201 0.388883 0.395404 0.386833 0.371331 0.328837 0.338019 0.348115 0.327325 0.251315 0.245979 0.246778 0.242971 0.220729 0.194507 0.181216 0.171750 0.149127 0.090704 0.041096 0.044249 0.048157 0.074322 0.036347 0.090492 0.160685 0.156884 0.156884 0.156884 0.156884 0.156884 0.156884 0.156884 0.156884 0.133657 0.133657 0.133657 0.133657 0.133657 0.133657 0.133657 0.133657 0.133657 0.156884 0.156884 0.156884 0.156884 0.156884 0.156884 0.156884 0.156884 0.156884 0.156884 0.156884 0.156884 0.156884 0.156884
0.000000 0.000000 0.000000 0.000000 0.000000 0.000000 0.000000 0.000000 0.000000 0.000000 0.000000 0.000000 0.000000 0.000000 0.000000 0.000000 0.000000 0.000000 0.000000 0.000000 0.000000 0.000000 0.000000 0.000000 0.000000 0.000000 0.000000 0.000000 0.000000 0.000000 0.000000 0.000000 0.000000 0.000000 0.000000 0.000000 0.000000 0.000000 0.000000 0.000000 0.000000 0.000000 0.000000 0.000000 0.000000 0.000000 0.000000 0.000000 0.000000 0.000000 0.000000 0.000000 0.180334 0.180334 0.180334 0.199007 0.199007 0.199007 0.199007 0.199007 0.199007 0.199007 0.199007 0.199007 0.199007 0.199007 0.199007 0.199007 0.199007 0.199007 0.199007 0.199007 0.199007 0.199007 0.199007 0.199007 0.199007 0.199007 0.199007 0.199007 0.199007 0.199007 0.199007 0.199007 0.199007 0.199007 0.199007 0.199007 0.199007 0.199007 0.199007 0.199007 0.199007 0.199007 0.199007 0.199007 0.225018 0.225018 0.225018 0.225018 0.225018 0.225018 0.225018 0.225018 0.225018 0.225018 0.225018 0.225018 0.225018 0.225018 0.225018 0.225018 0.225018 0.225018 0.225018 0.225018 0.225018 0.225018 0.225018 0.225018 0.225018 0.225018 0.225018 0.225018 0.225018 0.244339 0.244339 0.244339 0.244339 0.244339 0.244339 0.244339 0.244339 0.244339 0.244339 0.244339 0.244339 0.244339 0.244339 0.244339 0.244339 0.244339 0.244339 0.244339 0.244339 0.244339 0.244339 0.244339 0.256074 0.256074 0.256074 0.256074 0.256074 0.256074 0.256074 0.256074 0.256074 0.256074 0.256074 0.256074 0.256074 0.256074 0.256074 0.256074 0.256074 0.256074 0.256074 0.256074 0.256074 0.256074 0.256074 0.256074 0.256074 0.256074 0.256074 0.256074 0.256074 0.256074 0.256074 0.256074 0.256074 0.256074 0.256074 0.256074 0.256074 0.264906 0.264906 0.264906 0.264906 0.264906 0.264906 0.264906 0.264906 0.264906 0.264906 0.264906 0.264906 0.264906 0.264906 0.264906 0.264906 0.264906 0.264906 0.264906 0.264906 0.264906 0.264906 0.264906 0.264906 0.264906 0.264906 0.264906 0.264906 0.264906 0.264906 0.264906 0.264906 0.264906 0.264906 0.264906 0.264906 0.264906 0.264906 0.264906 0.264906 0.264906 0.264906 0.264906 0.264906 0.264906 0.264906 0.264906 0.264906 0.264906 0.264906 0.264906 0.264906 0.264906 0.264906 0.264906 0.264906 0.264906 0.264906 0.260378 0.260378 0.260378 0.260378 0.260378 0.260378 0.260378 0.260378 0.260378 0.260378 0.260378 0.260378 0.260378 0.264906 0.264906 0.264906 0.264906 0.264906 0.264906 0.264906 0.264906 0.264906 0.264906 0.264906 0.264906 0.269680 0.269680 0.269680 0.269680 0.269680 0.269680 0.269680 0.269680 0.269680 0.269680 0.269680 0.264906 0.264906 0.264906 0.264906 0.264906 0.264906 0.264906 0.264906 0.264906 0.264906 0.264906 0.256074 0.256074 0.256074 0.256074 0.256074 0.256074 0.256074 0.256074 0.256074 0.256074 0.256074 0.264906 0.264906 0.264906 0.264906 0.264906 0.264906 0.264906 0.264906 0.264906 0.264906 0.260378 0.260378 0.260378 0.260378 0.260378 0.260378 0.260378 0.260378 0.260378 0.260378 0.264906 0.264906 0.264906 0.264906 0.264906 0.264906 0.264906 0.264906 0.264906 0.251976 0.251976 0.251976 0.251976 0.251976 0.251976 0.251976 0.251976 0.251976 0.251976 0.256074 0.256074 0.256074 0.256074 0.256074 0.256074 0.256074 0.256074 0.256074 0.251976 0.251976 0.251976 0.251976 0.251976 0.251976 0.251976 0.251976 0.251976 0.251976 0.251976 0.251976 0.251976 0.251976
