# Output from CTFFind version 4.1.9, run on 2019-11-02 17:44:05
# Input file: stack6_bm3d_averaged_1_1.25_0_250_half.mrc ; Number of micrographs: 1
# Pixel size: 3.000 Angstroms ; acceleration voltage: 300.0 keV ; spherical aberration: 0.00 mm ; amplitude contrast: 0.07
# Box size: 512 pixels ; min. res.: 30.0 Angstroms ; max. res.: 5.0 Angstroms ; min. def.: 5000.0 um; max. def. 50000.0 um; num. frames averaged: 1
# 6 lines per micrograph: #1 - spatial frequency (1/Angstroms); #2 - 1D rotational average of spectrum (assuming no astigmatism); #3 - 1D rotational average of spectrum; #4 - CTF fit; #5 - cross-correlation between spectrum and CTF fit; #6 - 2sigma of expected cross correlation of noise
0.000000 0.000651 0.001302 0.001953 0.002604 0.003255 0.003906 0.004557 0.005208 0.005859 0.006510 0.007161 0.007812 0.008464 0.009115 0.009766 0.010417 0.011068 0.011719 0.012370 0.013021 0.013672 0.014323 0.014974 0.015625 0.016276 0.016927 0.017578 0.018229 0.018880 0.019531 0.020182 0.020833 0.021484 0.022135 0.022786 0.023438 0.024089 0.024740 0.025391 0.026042 0.026693 0.027344 0.027995 0.028646 0.029297 0.029948 0.030599 0.031250 0.031901 0.032552 0.033203 0.033854 0.034505 0.035156 0.035807 0.036458 0.037109 0.037760 0.038411 0.039062 0.039714 0.040365 0.041016 0.041667 0.042318 0.042969 0.043620 0.044271 0.044922 0.045573 0.046224 0.046875 0.047526 0.048177 0.048828 0.049479 0.050130 0.050781 0.051432 0.052083 0.052734 0.053385 0.054036 0.054688 0.055339 0.055990 0.056641 0.057292 0.057943 0.058594 0.059245 0.059896 0.060547 0.061198 0.061849 0.062500 0.063151 0.063802 0.064453 0.065104 0.065755 0.066406 0.067057 0.067708 0.068359 0.069010 0.069661 0.070312 0.070964 0.071615 0.072266 0.072917 0.073568 0.074219 0.074870 0.075521 0.076172 0.076823 0.077474 0.078125 0.078776 0.079427 0.080078 0.080729 0.081380 0.082031 0.082682 0.083333 0.083984 0.084635 0.085286 0.085938 0.086589 0.087240 0.087891 0.088542 0.089193 0.089844 0.090495 0.091146 0.091797 0.092448 0.093099 0.093750 0.094401 0.095052 0.095703 0.096354 0.097005 0.097656 0.098307 0.098958 0.099609 0.100260 0.100911 0.101562 0.102214 0.102865 0.103516 0.104167 0.104818 0.105469 0.106120 0.106771 0.107422 0.108073 0.108724 0.109375 0.110026 0.110677 0.111328 0.111979 0.112630 0.113281 0.113932 0.114583 0.115234 0.115885 0.116536 0.117188 0.117839 0.118490 0.119141 0.119792 0.120443 0.121094 0.121745 0.122396 0.123047 0.123698 0.124349 0.125000 0.125651 0.126302 0.126953 0.127604 0.128255 0.128906 0.129557 0.130208 0.130859 0.131510 0.132161 0.132812 0.133464 0.134115 0.134766 0.135417 0.136068 0.136719 0.137370 0.138021 0.138672 0.139323 0.139974 0.140625 0.141276 0.141927 0.142578 0.143229 0.143880 0.144531 0.145182 0.145833 0.146484 0.147135 0.147786 0.148438 0.149089 0.149740 0.150391 0.151042 0.151693 0.152344 0.152995 0.153646 0.154297 0.154948 0.155599 0.156250 0.156901 0.157552 0.158203 0.158854 0.159505 0.160156 0.160807 0.161458 0.162109 0.162760 0.163411 0.164062 0.164714 0.165365 0.166016 0.166667 0.167318 0.167969 0.168620 0.169271 0.169922 0.170573 0.171224 0.171875 0.172526 0.173177 0.173828 0.174479 0.175130 0.175781 0.176432 0.177083 0.177734 0.178385 0.179036 0.179688 0.180339 0.180990 0.181641 0.182292 0.182943 0.183594 0.184245 0.184896 0.185547 0.186198 0.186849 0.187500 0.188151 0.188802 0.189453 0.190104 0.190755 0.191406 0.192057 0.192708 0.193359 0.194010 0.194661 0.195312 0.195964 0.196615 0.197266 0.197917 0.198568 0.199219 0.199870 0.200521 0.201172 0.201823 0.202474 0.203125 0.203776 0.204427 0.205078 0.205729 0.206380 0.207031 0.207682 0.208333 0.208984 0.209635 0.210286 0.210938 0.211589 0.212240 0.212891 0.213542 0.214193 0.214844 0.215495 0.216146 0.216797 0.217448 0.218099 0.218750 0.219401 0.220052 0.220703 0.221354 0.222005 0.222656 0.223307 0.223958 0.224609 0.225260 0.225911 0.226562 0.227214 0.227865 0.228516 0.229167 0.229818 0.230469 0.231120 0.231771 0.232422 0.233073 0.233724 0.234375 0.235026 0.235677
       0.31087        0.31087        0.31087        0.31087        0.31087        0.31087        0.31087        0.31087        0.31087        0.31087        0.31087        0.31087        0.31087        0.31087        0.31087        0.31087        0.31087        0.31087        0.31087        0.31087        0.31087        0.31087        0.31087        0.31087        0.31087        0.31087        0.31087        0.31087        0.31086        0.31087        0.31087        0.31087        0.31087        0.31087        0.31087        0.31087        0.31087        0.31087        0.31087        0.31087        0.31087        0.31087        0.31087        0.31087        0.31087        0.31087        0.31087        0.31087        0.31087        0.31087        0.31087        0.63176        0.81543        0.41666        0.31108        0.18412       -0.10599        0.11046       -0.00272        0.03190        0.11787        0.33724        0.42074        0.40444        0.22738       -0.01483        0.04678        0.06869       -0.17546       -0.18204       -0.08798       -0.10741       -0.29638       -0.19555       -0.30052       -0.25390       -0.28805       -0.40861       -0.47482       -0.48350       -0.43191       -0.34362       -0.44047       -0.36785       -0.41208       -0.35486       -0.28053       -0.20541       -0.19492       -0.14149       -0.09526        0.03904        0.07540        0.25330        0.27719        0.36385        0.40536        0.52607        0.59747        0.61652        0.74244        0.70237        0.74489        0.65638        0.66272        0.69102        0.63300        0.61629        0.60715        0.43066        0.39945        0.35147        0.31462        0.22461        0.12832        0.05880        0.05631        0.00224       -0.08148       -0.02822       -0.03269       -0.07223        0.06660        0.16362        0.25292        0.32018        0.33700        0.42721        0.54685        0.59899        0.54775        0.67246        0.57176        0.54603        0.59919        0.64693        0.53496        0.45307        0.40632        0.37633        0.24213        0.20965        0.12994        0.11637        0.05237        0.04611        0.10106        0.16768        0.14489        0.18006        0.22244        0.24197        0.32626        0.45811        0.49346        0.49834        0.51172        0.58004        0.57064        0.52543        0.43172        0.38796        0.36454        0.26991        0.24546        0.20540        0.20306        0.19341        0.17481        0.16263        0.13227        0.19377        0.24684        0.33577        0.38077        0.41145        0.46300        0.53913        0.47576        0.49300        0.42465        0.39770        0.37912        0.36228        0.28962        0.24782        0.19147        0.23767        0.21412        0.18668        0.21972        0.22598        0.23366        0.30118        0.39776        0.39789        0.38039        0.39663        0.45886        0.48668        0.42695        0.35044        0.32285        0.27250        0.26756        0.25537        0.21662        0.28168        0.29356        0.29761        0.31518        0.31108        0.34591        0.37510        0.37385        0.37259        0.35135        0.31433        0.32767        0.32274        0.29489        0.28556        0.27574        0.21768        0.26960        0.27388        0.29769        0.31610        0.34009        0.37974        0.33929        0.31006        0.36275        0.35877        0.25747        0.29174        0.30664        0.24247        0.20449        0.25733        0.27739        0.27899        0.29684        0.30865        0.34196        0.33395        0.36111        0.32260        0.32170        0.30747        0.30118        0.26836        0.24874        0.25670        0.25479        0.28130        0.30465        0.30553        0.29856        0.31055        0.32739        0.26725        0.30105        0.26708        0.25464        0.27400        0.26339        0.26178        0.26091        0.30904        0.28800        0.31917        0.28819        0.26676        0.31126        0.31620        0.33478        0.31735        0.28813        0.24828        0.25269        0.26208        0.25985        0.31314        0.31208        0.32800        0.31824        0.31406        0.24224        0.27694        0.20763        0.20966        0.25540        0.25774        0.25941        0.28205        0.30818        0.29787        0.36565        0.30472        0.24832        0.23143        0.23812        0.28869        0.31669        0.30787        0.27600        0.27984        0.26816        0.32418        0.28354        0.25493        0.26345        0.25995        0.28194        0.24868        0.27168        0.31897        0.29273        0.22796        0.24044        0.28362        0.31617        0.25814        0.26078        0.24451        0.28314        0.29076        0.37434        0.27439        0.26597        0.26448        0.24000        0.22467        0.19226        0.24051        0.21908        0.21689        0.17230        0.19722        0.23067        0.20679        0.22912        0.20988        0.25036        0.23379        0.22308        0.17678        0.16731        0.19805        0.26460        0.12287        0.05718        0.21414        0.15567        0.12737        0.24867        0.16609        0.23272        0.19732       -0.00011       -0.51497       -1.02387
2.801247 2.773817 2.746528 2.719380 2.692373 2.665507 2.638781 2.612196 2.585752 2.559449 2.533287 2.507265 2.481384 2.455644 2.430044 2.404586 2.379268 2.354091 2.329054 2.304159 2.279404 2.254790 2.230317 2.205985 2.181793 2.157742 2.133832 2.110063 2.086434 2.062946 2.039599 2.016393 1.993327 1.970403 1.947619 1.924976 1.902473 1.880112 1.857891 1.835811 1.813872 1.792073 1.770415 1.748899 1.727522 1.706287 1.685192 1.664239 1.643425 1.622753 1.602222 1.890721 2.239329 1.676142 1.719280 1.362134 0.926017 1.182540 1.012350 1.060913 1.017211 1.476843 1.497100 1.516819 1.272909 0.930073 0.812087 1.001404 0.695300 0.484681 0.583269 0.671893 0.418032 0.477591 0.328532 0.375887 0.246327 0.150324 -0.029758 0.004550 0.013433 0.081582 0.039655 0.082633 -0.042807 0.033447 0.110196 0.220088 0.277799 0.209686 0.316859 0.556167 0.436576 0.725306 0.790681 0.857896 0.907842 1.114319 1.151081 1.174614 1.316182 1.230603 1.368311 1.190770 1.101625 1.295638 1.119164 1.045871 1.123025 0.873004 0.735779 0.671617 0.656720 0.462929 0.391145 0.264563 0.227391 0.103198 0.001531 0.097125 0.032925 -0.057141 0.119761 0.259675 0.316640 0.457619 0.490949 0.552394 0.716333 0.827887 0.664916 0.963798 0.800058 0.671283 0.764790 0.805086 0.722641 0.630583 0.443754 0.505161 0.287755 0.178796 0.148493 0.014600 -0.012810 -0.109571 -0.022579 0.046634 0.079557 -0.033173 0.255065 0.103268 0.222427 0.378295 0.433302 0.544409 0.420873 0.557253 0.656697 0.506149 0.404271 0.349287 0.327068 0.152039 0.145460 0.008050 0.098879 0.019320 0.003012 -0.023975 -0.101016 0.002834 0.031179 0.103636 0.285817 0.216840 0.360362 0.369524 0.436476 0.416046 0.404159 0.331337 0.226738 0.306450 0.176998 0.157373 -0.002385 0.050319 0.080817 -0.028038 0.002986 0.026074 0.063705 0.071594 0.223664 0.306806 0.249593 0.220642 0.385071 0.406457 0.351645 0.243232 0.175952 0.143197 0.090998 0.077271 0.041589 0.024962 0.133575 0.064200 0.183491 0.099667 0.139767 0.232615 0.211416 0.234742 0.199542 0.200664 0.105548 0.164953 0.134684 0.096483 0.117246 0.000703 0.040520 0.088582 0.049785 0.145258 0.115919 0.207739 0.211162 0.131376 0.132678 0.221984 0.102362 0.063280 0.085302 0.066897 -0.006714 -0.032452 0.051494 0.077233 0.042712 0.112119 0.116375 0.136153 0.144002 0.173259 0.110715 0.094922 0.105286 0.093726 0.023269 0.017066 0.047489 0.000056 0.080967 0.116275 0.084967 0.072753 0.118456 0.110351 0.027416 0.112120 0.031812 0.017948 0.075549 0.018959 0.023307 0.054176 0.094919 0.028574 0.116488 0.065182 0.009260 0.121062 0.087546 0.093389 0.087473 0.013508 -0.014958 -0.020388 0.039641 -0.008000 0.080285 0.078223 0.077032 0.056932 0.137547 -0.044211 0.030603 -0.098791 -0.011252 -0.034714 0.008668 0.009908 0.021202 0.082486 0.060858 0.125569 -0.002573 -0.045467 -0.076715 -0.072491 0.052836 0.056179 0.037523 -0.005576 -0.014534 -0.021019 0.064291 0.001469 -0.087052 -0.025608 -0.069874 0.002493 -0.055750 -0.016038 0.035781 -0.013593 -0.086878 -0.046865 0.068850 0.021716 -0.014328 -0.011019 -0.058786 0.077643 0.062635 0.153941 0.004496 0.004198 0.025113 0.005549 -0.044073 -0.037002 0.030492 -0.011839 -0.015868 -0.070050 -0.048934 0.054354 -0.082195 0.068146 -0.011746 0.104411 -0.013198 0.067856 -0.095708 -0.031604 -0.068080 0.156272 -0.085757 -0.263850 0.295414 0.197346 0.177077 0.438467 0.199433 0.303641 0.275894 0.003039 -1.410376
0.072396 0.072834 0.074149 0.076340 0.079406 0.083347 0.088162 0.093850 0.100410 0.107838 0.116134 0.125293 0.135312 0.146187 0.157912 0.170481 0.183886 0.198118 0.213167 0.229021 0.245666 0.263088 0.281267 0.300184 0.319817 0.340139 0.361124 0.382739 0.404951 0.427720 0.451006 0.474762 0.498938 0.523482 0.548333 0.573430 0.598704 0.624082 0.649486 0.674834 0.700037 0.725003 0.749632 0.773822 0.797463 0.820441 0.842638 0.863932 0.884194 0.903293 0.921094 0.937459 0.952247 0.965315 0.976518 0.985712 0.992752 0.997493 0.999794 0.999516 0.996525 0.990691 0.981891 0.970011 0.954946 0.936600 0.914893 0.889754 0.861131 0.828989 0.793309 0.754094 0.711369 0.665181 0.615601 0.562728 0.506687 0.447631 0.385742 0.321233 0.254346 0.185355 0.114564 0.042308 0.031050 0.105113 0.179462 0.253649 0.327201 0.399626 0.470410 0.539027 0.604936 0.667592 0.726443 0.780942 0.830548 0.874736 0.912995 0.944845 0.969836 0.987556 0.997639 0.999772 0.993703 0.979241 0.956271 0.924755 0.884735 0.836346 0.779809 0.715445 0.643668 0.564992 0.480028 0.389484 0.294160 0.194947 0.092818 0.011178 0.115927 0.220255 0.322948 0.422759 0.518428 0.608695 0.692318 0.768092 0.834870 0.891576 0.937234 0.970978 0.992078 0.999955 0.994197 0.974575 0.941060 0.893824 0.833258 0.759972 0.674795 0.578773 0.473167 0.359434 0.239220 0.114334 0.013271 0.141529 0.268292 0.391364 0.508536 0.617637 0.716563 0.803332 0.876121 0.933309 0.973522 0.995669 0.998974 0.983015 0.947736 0.893477 0.820972 0.731361 0.626179 0.507335 0.377096 0.238042 0.093026 0.054880 0.202444 0.346351 0.483266 0.609923 0.723200 0.820202 0.898343 0.955420 0.989687 0.999914 0.985441 0.946217 0.882826 0.796495 0.689086 0.563073 0.421496 0.267896 0.106245 0.059162 0.223805 0.383069 0.532367 0.667280 0.783692 0.877920 0.946850 0.988038 0.999825 0.981404 0.932883 0.855310 0.750676 0.621878 0.472669 0.307547 0.131651 0.049405 0.229695 0.403172 0.563879 0.706153 0.824831 0.915454 0.974447 0.999276 0.988575 0.942235 0.861449 0.748709 0.607754 0.443471 0.261744 0.069252 0.126748 0.318709 0.499067 0.660553 0.796490 0.901083 0.969683 0.999018 0.987369 0.934687 0.842654 0.714653 0.555685 0.372187 0.171807 0.036905 0.244857 0.442790 0.621710 0.773293 0.890294 0.966914 0.999109 0.984834 0.924196 0.819511 0.675256 0.497911 0.295698 0.078224 0.143953 0.359837 0.558529 0.729786 0.864564 0.955526 0.997457 0.987609 0.925904 0.815014 0.660290 0.469549 0.252705 0.021289 0.212147 0.434706 0.633859 0.798157 0.917921 0.985832 0.997423 0.951409 0.849843 0.698084 0.504555 0.280331 0.038520 0.206461 0.439751 0.646938 0.814974 0.933009 0.993136 0.990965 0.925983 0.801688 0.625459 0.408170 0.163557 0.092603 0.343506 0.572405 0.763750 0.904261 0.983893 0.996592 0.940818 0.819750 0.641181 0.417067 0.162792 0.103867 0.363955 0.598673 0.790762 0.925799 0.993316 0.987675 0.908592 0.761288 0.556204 0.308343 0.036199 0.239559 0.497671 0.717907 0.882685 0.978525 0.997196 0.936496 0.800561 0.599664 0.349513 0.070087 0.215930 0.484953 0.714461 0.884899 0.981391 0.995107 0.924138 0.773812 0.556379 0.290094 0.002248 0.295233 0.563017 0.781609 0.931069 0.997373 0.973815 0.861756 0.670673 0.417448 0.124945 0.179982 0.468936 0.714622 0.893446 0.987844 0.988081 0.893344 0.711998 0.460953 0.164174 0.149545 0.449330 0.705266 0.891418
1.000000 1.000000 1.000000 1.000000 1.000000 1.000000 1.000000 1.000000 1.000000 1.000000 1.000000 1.000000 1.000000 1.000000 1.000000 1.000000 1.000000 1.000000 1.000000 1.000000 1.000000 1.000000 1.000000 1.000000 1.000000 1.000000 1.000000 1.000000 1.000000 1.000000 1.000000 1.000000 1.000000 1.000000 1.000000 1.000000 1.000000 1.000000 1.000000 1.000000 1.000000 1.000000 1.000000 1.000000 1.000000 1.000000 1.000000 1.000000 1.000000 1.000000 1.000000 1.000000 0.833128 0.833128 0.833128 0.833128 0.833128 0.833128 0.833128 0.815169 0.815169 0.815169 0.815169 0.815169 0.815169 0.815169 0.815169 0.815169 0.815169 0.815169 0.815169 0.815169 0.815169 0.815169 0.815169 0.815169 0.815169 0.815169 0.815169 0.815169 0.815169 0.815169 0.815169 0.815169 0.815169 0.815169 0.815169 0.815169 0.815169 0.815169 0.815169 0.815169 0.815169 0.815169 0.815169 0.815169 0.815169 0.815169 0.815169 0.815169 0.815169 0.815169 0.815169 0.953494 0.954141 0.951237 0.950151 0.948481 0.945137 0.940852 0.940404 0.941751 0.941958 0.942353 0.944460 0.945041 0.946663 0.947834 0.948650 0.949456 0.957556 0.961248 0.961786 0.961464 0.952147 0.958906 0.958042 0.955755 0.956507 0.956787 0.957485 0.957375 0.957218 0.956727 0.955416 0.956117 0.955954 0.955224 0.954195 0.951945 0.951898 0.951458 0.951592 0.952552 0.953261 0.953907 0.954428 0.953616 0.953854 0.953845 0.953749 0.948945 0.948965 0.942191 0.942746 0.943819 0.943439 0.942372 0.940900 0.940965 0.940854 0.940796 0.940640 0.941081 0.923243 0.922953 0.923219 0.922597 0.915067 0.904076 0.896060 0.890400 0.891402 0.895673 0.900571 0.901310 0.898479 0.897430 0.881830 0.878721 0.864251 0.860794 0.848930 0.859362 0.860553 0.861964 0.853007 0.852827 0.851116 0.849295 0.838750 0.843309 0.843160 0.839472 0.835442 0.833807 0.831201 0.833709 0.842437 0.839819 0.837738 0.839754 0.826916 0.817191 0.815963 0.817125 0.825341 0.837763 0.836380 0.834756 0.829280 0.825458 0.820163 0.816567 0.816917 0.818712 0.816410 0.820132 0.817898 0.828042 0.817610 0.810404 0.815440 0.824584 0.826149 0.827719 0.829270 0.826274 0.831459 0.816086 0.817978 0.819121 0.774581 0.777396 0.767459 0.762844 0.743240 0.744682 0.739530 0.739176 0.729972 0.711862 0.723288 0.725162 0.690119 0.699636 0.694393 0.683965 0.664591 0.675236 0.688596 0.699115 0.698290 0.697858 0.686753 0.685361 0.692889 0.692069 0.697460 0.685525 0.681622 0.674368 0.676536 0.663417 0.662507 0.660366 0.660252 0.661303 0.657183 0.637331 0.647402 0.635990 0.618940 0.607357 0.583888 0.549007 0.535851 0.525220 0.503157 0.483773 0.499441 0.507337 0.485976 0.476995 0.460932 0.434320 0.425732 0.424986 0.413646 0.402744 0.387640 0.343108 0.349279 0.349229 0.349551 0.334043 0.344295 0.328573 0.276788 0.260426 0.226942 0.247089 0.260019 0.263874 0.246277 0.239004 0.257278 0.226291 0.232251 0.230587 0.246969 0.200846 0.138334 0.152942 0.148930 0.154140 0.141885 0.113942 0.141891 0.130244 0.146884 0.152439 0.094739 0.064179 0.045756 0.027675 0.033916 0.058198 0.072343 0.062826 0.048350 -0.046630 -0.011715 0.012799 0.012799 0.012799 0.012799 0.012799 0.012799 0.012799 0.012799 0.012799 0.012799 0.012799 -0.045714 -0.045714 -0.045714 -0.045714 -0.045714 -0.045714 -0.045714 -0.045714 -0.045714 -0.045714 -0.045714 -0.045714 -0.045714 -0.045714 -0.045714 -0.045714 -0.045714 -0.045714 -0.045714
0.000000 0.000000 0.000000 0.000000 0.000000 0.000000 0.000000 0.000000 0.000000 0.000000 0.000000 0.000000 0.000000 0.000000 0.000000 0.000000 0.000000 0.000000 0.000000 0.000000 0.000000 0.000000 0.000000 0.000000 0.000000 0.000000 0.000000 0.000000 0.000000 0.000000 0.000000 0.000000 0.000000 0.000000 0.000000 0.000000 0.000000 0.000000 0.000000 0.000000 0.000000 0.000000 0.000000 0.000000 0.000000 0.000000 0.000000 0.000000 0.000000 0.000000 0.000000 0.000000 0.173422 0.173422 0.173422 0.173422 0.173422 0.173422 0.173422 0.191565 0.191565 0.191565 0.191565 0.191565 0.191565 0.191565 0.191565 0.191565 0.191565 0.191565 0.191565 0.191565 0.191565 0.191565 0.191565 0.191565 0.191565 0.191565 0.191565 0.191565 0.191565 0.191565 0.191565 0.191565 0.191565 0.191565 0.191565 0.191565 0.191565 0.191565 0.191565 0.191565 0.191565 0.191565 0.191565 0.191565 0.191565 0.191565 0.191565 0.191565 0.191565 0.191565 0.191565 0.219529 0.219529 0.219529 0.219529 0.219529 0.219529 0.219529 0.219529 0.219529 0.219529 0.219529 0.219529 0.219529 0.219529 0.219529 0.219529 0.219529 0.219529 0.219529 0.219529 0.219529 0.219529 0.219529 0.219529 0.219529 0.219529 0.219529 0.219529 0.219529 0.219529 0.219529 0.237356 0.237356 0.237356 0.237356 0.237356 0.237356 0.237356 0.237356 0.237356 0.237356 0.237356 0.237356 0.237356 0.237356 0.237356 0.237356 0.237356 0.237356 0.237356 0.237356 0.237356 0.237356 0.237356 0.237356 0.244339 0.244339 0.244339 0.244339 0.244339 0.244339 0.244339 0.244339 0.244339 0.244339 0.244339 0.244339 0.244339 0.244339 0.244339 0.244339 0.244339 0.244339 0.244339 0.244339 0.244339 0.248069 0.248069 0.248069 0.248069 0.248069 0.248069 0.248069 0.248069 0.248069 0.248069 0.248069 0.248069 0.248069 0.248069 0.248069 0.248069 0.248069 0.248069 0.248069 0.248069 0.248069 0.248069 0.248069 0.248069 0.248069 0.248069 0.248069 0.248069 0.248069 0.248069 0.248069 0.248069 0.248069 0.248069 0.248069 0.248069 0.248069 0.256074 0.256074 0.256074 0.256074 0.256074 0.256074 0.256074 0.256074 0.256074 0.256074 0.256074 0.256074 0.256074 0.256074 0.256074 0.256074 0.256074 0.256074 0.256074 0.256074 0.256074 0.256074 0.256074 0.256074 0.256074 0.256074 0.256074 0.256074 0.256074 0.256074 0.256074 0.256074 0.256074 0.256074 0.256074 0.256074 0.256074 0.256074 0.256074 0.256074 0.256074 0.256074 0.256074 0.256074 0.256074 0.260378 0.260378 0.260378 0.260378 0.260378 0.260378 0.260378 0.260378 0.260378 0.260378 0.260378 0.260378 0.260378 0.256074 0.256074 0.256074 0.256074 0.256074 0.256074 0.256074 0.256074 0.256074 0.256074 0.256074 0.256074 0.256074 0.260378 0.260378 0.260378 0.260378 0.260378 0.260378 0.260378 0.260378 0.260378 0.260378 0.260378 0.260378 0.251976 0.251976 0.251976 0.251976 0.251976 0.251976 0.251976 0.251976 0.251976 0.251976 0.251976 0.251976 0.256074 0.256074 0.256074 0.256074 0.256074 0.256074 0.256074 0.256074 0.256074 0.256074 0.256074 0.251976 0.251976 0.251976 0.251976 0.251976 0.251976 0.251976 0.251976 0.251976 0.251976 0.251976 0.248069 0.248069 0.248069 0.248069 0.248069 0.248069 0.248069 0.248069 0.248069 0.248069 0.248069 0.256074 0.256074 0.256074 0.256074 0.256074 0.256074 0.256074 0.256074 0.256074 0.256074 0.256074 0.256074 0.256074 0.256074 0.256074 0.256074 0.256074 0.256074 0.256074
