# Output from CTFFind version 4.1.9, run on 2019-11-03 20:10:39
# Input file: stack11_bm3d_averaged_1_7.5_0_3000_half.mrc ; Number of micrographs: 1
# Pixel size: 3.000 Angstroms ; acceleration voltage: 300.0 keV ; spherical aberration: 0.00 mm ; amplitude contrast: 0.07
# Box size: 512 pixels ; min. res.: 30.0 Angstroms ; max. res.: 5.0 Angstroms ; min. def.: 5000.0 um; max. def. 50000.0 um; num. frames averaged: 1
# 6 lines per micrograph: #1 - spatial frequency (1/Angstroms); #2 - 1D rotational average of spectrum (assuming no astigmatism); #3 - 1D rotational average of spectrum; #4 - CTF fit; #5 - cross-correlation between spectrum and CTF fit; #6 - 2sigma of expected cross correlation of noise
0.000000 0.000651 0.001302 0.001953 0.002604 0.003255 0.003906 0.004557 0.005208 0.005859 0.006510 0.007161 0.007812 0.008464 0.009115 0.009766 0.010417 0.011068 0.011719 0.012370 0.013021 0.013672 0.014323 0.014974 0.015625 0.016276 0.016927 0.017578 0.018229 0.018880 0.019531 0.020182 0.020833 0.021484 0.022135 0.022786 0.023438 0.024089 0.024740 0.025391 0.026042 0.026693 0.027344 0.027995 0.028646 0.029297 0.029948 0.030599 0.031250 0.031901 0.032552 0.033203 0.033854 0.034505 0.035156 0.035807 0.036458 0.037109 0.037760 0.038411 0.039062 0.039714 0.040365 0.041016 0.041667 0.042318 0.042969 0.043620 0.044271 0.044922 0.045573 0.046224 0.046875 0.047526 0.048177 0.048828 0.049479 0.050130 0.050781 0.051432 0.052083 0.052734 0.053385 0.054036 0.054688 0.055339 0.055990 0.056641 0.057292 0.057943 0.058594 0.059245 0.059896 0.060547 0.061198 0.061849 0.062500 0.063151 0.063802 0.064453 0.065104 0.065755 0.066406 0.067057 0.067708 0.068359 0.069010 0.069661 0.070312 0.070964 0.071615 0.072266 0.072917 0.073568 0.074219 0.074870 0.075521 0.076172 0.076823 0.077474 0.078125 0.078776 0.079427 0.080078 0.080729 0.081380 0.082031 0.082682 0.083333 0.083984 0.084635 0.085286 0.085938 0.086589 0.087240 0.087891 0.088542 0.089193 0.089844 0.090495 0.091146 0.091797 0.092448 0.093099 0.093750 0.094401 0.095052 0.095703 0.096354 0.097005 0.097656 0.098307 0.098958 0.099609 0.100260 0.100911 0.101562 0.102214 0.102865 0.103516 0.104167 0.104818 0.105469 0.106120 0.106771 0.107422 0.108073 0.108724 0.109375 0.110026 0.110677 0.111328 0.111979 0.112630 0.113281 0.113932 0.114583 0.115234 0.115885 0.116536 0.117188 0.117839 0.118490 0.119141 0.119792 0.120443 0.121094 0.121745 0.122396 0.123047 0.123698 0.124349 0.125000 0.125651 0.126302 0.126953 0.127604 0.128255 0.128906 0.129557 0.130208 0.130859 0.131510 0.132161 0.132812 0.133464 0.134115 0.134766 0.135417 0.136068 0.136719 0.137370 0.138021 0.138672 0.139323 0.139974 0.140625 0.141276 0.141927 0.142578 0.143229 0.143880 0.144531 0.145182 0.145833 0.146484 0.147135 0.147786 0.148438 0.149089 0.149740 0.150391 0.151042 0.151693 0.152344 0.152995 0.153646 0.154297 0.154948 0.155599 0.156250 0.156901 0.157552 0.158203 0.158854 0.159505 0.160156 0.160807 0.161458 0.162109 0.162760 0.163411 0.164062 0.164714 0.165365 0.166016 0.166667 0.167318 0.167969 0.168620 0.169271 0.169922 0.170573 0.171224 0.171875 0.172526 0.173177 0.173828 0.174479 0.175130 0.175781 0.176432 0.177083 0.177734 0.178385 0.179036 0.179688 0.180339 0.180990 0.181641 0.182292 0.182943 0.183594 0.184245 0.184896 0.185547 0.186198 0.186849 0.187500 0.188151 0.188802 0.189453 0.190104 0.190755 0.191406 0.192057 0.192708 0.193359 0.194010 0.194661 0.195312 0.195964 0.196615 0.197266 0.197917 0.198568 0.199219 0.199870 0.200521 0.201172 0.201823 0.202474 0.203125 0.203776 0.204427 0.205078 0.205729 0.206380 0.207031 0.207682 0.208333 0.208984 0.209635 0.210286 0.210938 0.211589 0.212240 0.212891 0.213542 0.214193 0.214844 0.215495 0.216146 0.216797 0.217448 0.218099 0.218750 0.219401 0.220052 0.220703 0.221354 0.222005 0.222656 0.223307 0.223958 0.224609 0.225260 0.225911 0.226562 0.227214 0.227865 0.228516 0.229167 0.229818 0.230469 0.231120 0.231771 0.232422 0.233073 0.233724 0.234375 0.235026 0.235677
       0.34615        0.34615        0.34615        0.34615        0.34615        0.34615        0.34615        0.34615        0.34615        0.34615        0.34615        0.34615        0.34615        0.34615        0.34615        0.34615        0.34615        0.34615        0.34615        0.34615        0.34615        0.34615        0.34615        0.34615        0.34615        0.34615        0.34615        0.34615        0.34615        0.34615        0.34615        0.34615        0.34615        0.34615        0.34615        0.34615        0.34615        0.34615        0.34615        0.34615        0.34615        0.34615        0.34615        0.34615        0.34615        0.34615        0.34615        0.34615        0.34615        0.34615        0.34615        0.69963        0.85728        0.53864        0.10550       -0.02876       -0.38356       -0.17939       -0.28825       -0.11676       -0.05466       -0.11309       -0.05326       -0.16468       -0.20467       -0.21241       -0.30597       -0.31730       -0.44225       -0.36140       -0.42424       -0.41950       -0.39190       -0.40362       -0.44344       -0.50481       -0.55722       -0.54675       -0.52065       -0.35443       -0.32315       -0.28873       -0.26878       -0.18466       -0.16811        0.06282        0.14441        0.17806        0.26811        0.38158        0.45821        0.52361        0.60256        0.59971        0.58565        0.70121        0.80249        0.70204        0.74491        0.61829        0.56860        0.48394        0.43393        0.51284        0.39899        0.27500        0.11865        0.11637        0.09716       -0.01052        0.04886        0.05532        0.01503        0.02894        0.03397        0.23675        0.27224        0.29691        0.43628        0.45422        0.41545        0.60240        0.61718        0.63279        0.72286        0.67512        0.64740        0.65472        0.55990        0.45973        0.41930        0.30517        0.27348        0.18720        0.13801        0.05276        0.06896        0.07988        0.10174        0.16291        0.24812        0.30149        0.42586        0.46649        0.48162        0.56258        0.60118        0.63655        0.61392        0.55725        0.46342        0.47375        0.37899        0.28006        0.21402        0.15642        0.17495        0.15494        0.16507        0.19501        0.32618        0.34099        0.41075        0.44902        0.42514        0.47893        0.56409        0.55652        0.50497        0.45792        0.41535        0.37588        0.34464        0.31237        0.26822        0.24835        0.25899        0.25890        0.22786        0.31214        0.36635        0.38500        0.43953        0.45624        0.46726        0.42922        0.41448        0.40265        0.36443        0.34160        0.27583        0.28463        0.27093        0.25060        0.29864        0.29619        0.35434        0.38526        0.43810        0.47684        0.40663        0.42252        0.43294        0.41312        0.35187        0.33126        0.29323        0.32906        0.27820        0.32622        0.31788        0.33599        0.34407        0.36674        0.31251        0.38743        0.41187        0.38172        0.35359        0.37000        0.32080        0.29717        0.31043        0.32023        0.30913        0.32145        0.34781        0.36023        0.34203        0.36412        0.36269        0.42674        0.39283        0.34188        0.35102        0.30121        0.29667        0.32817        0.32148        0.33205        0.34528        0.34586        0.38986        0.33196        0.33093        0.33984        0.35174        0.30565        0.31370        0.28399        0.30385        0.33377        0.30466        0.33416        0.36106        0.37419        0.30137        0.34666        0.30144        0.29197        0.28027        0.24852        0.31034        0.30957        0.34371        0.34097        0.34738        0.32944        0.35068        0.31690        0.34680        0.30541        0.32813        0.29587        0.33897        0.33519        0.37684        0.33447        0.33786        0.33710        0.29401        0.27782        0.31494        0.25278        0.23168        0.34131        0.32511        0.36981        0.34842        0.36542        0.33844        0.33449        0.35414        0.26789        0.27301        0.32130        0.30216        0.31183        0.31336        0.33982        0.32927        0.28898        0.29276        0.34667        0.32356        0.32522        0.30295        0.32152        0.33740        0.39177        0.36633        0.32278        0.28463        0.30381        0.29110        0.31114        0.28180        0.27457        0.31321        0.32929        0.34694        0.35723        0.33434        0.29844        0.30243        0.27301        0.28116        0.25821        0.30626        0.25930        0.25154        0.28623        0.28128        0.26263        0.29334        0.22216        0.21864        0.23695        0.19525        0.27657        0.35115        0.25499        0.24876        0.32039        0.30008        0.30705        0.31470        0.27694        0.25443        0.19693        0.21148        0.21326        0.29146        0.23769        0.28605        0.36821        0.37793        0.26077        0.18844        0.14106       -0.01827       -0.14254       -0.62715
2.813626 2.783756 2.754048 2.724504 2.695121 2.665902 2.636845 2.607951 2.579220 2.550651 2.522245 2.494002 2.465921 2.438003 2.410248 2.382655 2.355226 2.327958 2.300854 2.273912 2.247132 2.220516 2.194062 2.167771 2.141642 2.115676 2.089873 2.064233 2.038755 2.013440 1.988287 1.963297 1.938470 1.913806 1.889304 1.864965 1.840788 1.816775 1.792923 1.769235 1.745709 1.722346 1.699146 1.676108 1.653233 1.630521 1.607971 1.585584 1.563360 1.541298 1.519399 1.737877 2.165318 1.719697 1.195085 1.057267 0.456823 0.852698 0.561772 0.846638 0.818897 0.820530 0.758888 0.759610 0.599082 0.562933 0.502977 0.427562 0.250431 0.363670 0.198701 0.331005 0.218040 0.212105 0.186556 0.041974 -0.000405 0.018794 -0.070592 0.133489 0.234154 0.189266 0.180676 0.324065 0.183970 0.524449 0.628213 0.639560 0.656481 0.880610 0.839769 0.948144 0.946927 1.043066 1.013919 1.095431 1.177555 1.048712 1.174216 0.913949 0.933964 0.800738 0.657514 0.814275 0.697693 0.501742 0.335579 0.252833 0.272504 0.150199 0.140393 0.167907 0.110404 0.117815 0.084479 0.248307 0.350285 0.342146 0.479353 0.546881 0.417945 0.598092 0.736002 0.643891 0.721942 0.712351 0.722091 0.646981 0.597943 0.489546 0.367198 0.278503 0.220404 0.094195 0.116612 -0.120230 -0.049539 -0.063451 -0.085562 -0.017073 0.128719 0.072694 0.244729 0.308844 0.337759 0.371879 0.495794 0.465065 0.479914 0.490419 0.305467 0.293906 0.287318 0.086259 0.046166 -0.083905 -0.016906 -0.063539 -0.097891 -0.067803 0.041113 0.095804 0.127955 0.228340 0.222520 0.218603 0.315421 0.342441 0.448481 0.256361 0.232624 0.228796 0.143899 0.146699 0.120770 -0.004605 0.014577 0.079406 -0.011340 0.044185 0.134122 0.135544 0.212563 0.233644 0.252520 0.166583 0.212238 0.129549 0.123331 0.116931 0.025687 -0.026438 -0.001678 -0.020488 -0.051444 0.056252 0.003491 0.107158 0.138573 0.195695 0.162097 0.115496 0.139822 0.158636 0.109474 0.034730 -0.026604 0.026269 0.030377 -0.045726 0.039569 0.019055 0.048161 0.039625 0.054842 0.019075 0.131815 0.115888 0.045666 0.036117 0.041136 0.004202 -0.030786 0.007720 0.002255 -0.005686 0.001439 0.059523 0.053659 0.037916 0.071782 0.062253 0.167407 0.064828 0.043137 0.044418 -0.034922 0.013276 0.048624 0.008500 0.032926 0.057193 0.078961 0.059525 0.042561 0.008484 0.081036 0.030030 0.020644 0.026089 -0.004840 0.032214 0.028267 0.021394 0.071367 0.076725 0.082118 0.043527 0.055571 0.021868 0.018343 -0.027277 -0.023823 0.039073 0.053306 0.081009 0.081347 0.067480 0.071242 0.097367 0.042814 0.088472 0.055074 0.046510 0.018582 0.105472 0.065123 0.128409 0.063074 0.071154 0.092917 0.028144 0.002629 0.085672 -0.039826 -0.030777 0.090117 0.042810 0.158837 0.090124 0.088015 0.065125 0.026751 0.089168 -0.028840 -0.024468 0.044816 0.029635 0.029397 0.012526 0.100644 0.026721 -0.015245 0.048428 0.038096 0.052881 0.055385 -0.007720 0.052928 0.046339 0.113828 0.061403 0.028828 -0.030326 -0.032015 -0.004286 0.011248 -0.057331 -0.019798 -0.000546 0.006546 0.043248 0.061996 0.005790 -0.030813 -0.028260 -0.018255 -0.064543 -0.044500 -0.038104 -0.131574 -0.094950 -0.065921 -0.101130 -0.108779 -0.031076 -0.154613 -0.103442 -0.119280 -0.199716 -0.071736 0.060711 -0.078130 -0.133172 0.051113 0.021399 -0.032403 0.069790 -0.024046 -0.004748 -0.080902 -0.043085 0.052132 0.138215 0.052349 0.140252 0.167980 0.487402 0.214376 0.335518 0.182902 -0.024114 -0.704146
0.072396 0.072899 0.074408 0.076923 0.080443 0.084967 0.090494 0.097023 0.104550 0.113074 0.122591 0.133096 0.144585 0.157051 0.170486 0.184881 0.200225 0.216505 0.233705 0.251810 0.270798 0.290646 0.311329 0.332818 0.355078 0.378072 0.401760 0.426094 0.451025 0.476496 0.502445 0.528806 0.555505 0.582464 0.609597 0.636812 0.664010 0.691086 0.717928 0.744416 0.770425 0.795823 0.820469 0.844218 0.866919 0.888415 0.908542 0.927134 0.944019 0.959024 0.971971 0.982682 0.990979 0.996684 0.999622 0.999622 0.996518 0.990149 0.980367 0.967030 0.950012 0.929200 0.904497 0.875828 0.843136 0.806389 0.765581 0.720732 0.671894 0.619150 0.562617 0.502447 0.438830 0.371995 0.302210 0.229782 0.155060 0.078434 0.000332 0.078778 0.158390 0.237965 0.316927 0.394675 0.470582 0.543998 0.614260 0.680694 0.742625 0.799379 0.850297 0.894739 0.932094 0.961790 0.983301 0.996159 0.999962 0.994385 0.979187 0.954223 0.919448 0.874928 0.820848 0.757510 0.685346 0.604914 0.516902 0.422127 0.321529 0.216167 0.107216 0.004051 0.116270 0.228001 0.337749 0.443978 0.545136 0.639677 0.726086 0.802907 0.868768 0.922409 0.962709 0.988715 0.999668 0.995023 0.974477 0.937983 0.885767 0.818337 0.736492 0.641322 0.534200 0.416775 0.290949 0.158858 0.022838 0.114611 0.250866 0.383234 0.509001 0.625492 0.730128 0.820488 0.894374 0.949864 0.985379 0.999726 0.992151 0.962375 0.910625 0.837650 0.744731 0.633670 0.506772 0.366808 0.216965 0.060789 0.097904 0.255106 0.406722 0.548673 0.677015 0.788048 0.878433 0.945303 0.986366 0.999996 0.985308 0.942216 0.871470 0.774669 0.654241 0.513415 0.356138 0.186986 0.011047 0.166233 0.339205 0.502203 0.649728 0.776641 0.878357 0.951021 0.991671 0.998378 0.970354 0.908027 0.813065 0.688368 0.538004 0.367099 0.181686 0.011493 0.205231 0.392099 0.564755 0.716217 0.840175 0.931260 0.985299 0.999532 0.972779 0.905541 0.800040 0.660180 0.491446 0.300703 0.095953 0.113988 0.319860 0.512365 0.682590 0.822432 0.925006 0.985012 0.999030 0.965756 0.886130 0.763363 0.602851 0.411979 0.199821 0.023284 0.246198 0.457546 0.646295 0.802346 0.917090 0.983922 0.998650 0.959805 0.868797 0.729929 0.550247 0.339228 0.108308 0.129698 0.361294 0.573077 0.752512 0.888693 0.973051 0.999929 0.967004 0.875535 0.730382 0.539807 0.315066 0.069781 0.180859 0.421018 0.635212 0.809327 0.931582 0.993359 0.989873 0.920594 0.789399 0.604432 0.377658 0.124150 0.138884 0.393235 0.620960 0.805665 0.933710 0.995269 0.985151 0.903293 0.754906 0.550219 0.303854 0.033830 0.239720 0.496006 0.715207 0.879997 0.976977 0.997825 0.940084 0.807500 0.609892 0.362488 0.084835 0.200697 0.470703 0.702647 0.876789 0.977903 0.996686 0.930691 0.784711 0.570531 0.306074 0.013970 0.280325 0.550734 0.772878 0.926308 0.996460 0.976118 0.866255 0.676124 0.422605 0.128776 0.178103 0.469089 0.716289 0.895558 0.988937 0.986524 0.887642 0.701105 0.444561 0.142921 0.173977 0.474287 0.727349 0.906854 0.993654 0.977906 0.860303 0.652230 0.374791 0.056783 0.268230 0.565411 0.802408 0.952917 0.999704 0.936694 0.769876 0.516892 0.205309 0.130297 0.452105 0.723314 0.912381 0.996782 0.965811 0.822081 0.581480 0.271576 0.071436 0.406875 0.694393 0.898845 0.994689 0.969291 0.824745 0.577908 0.258595 0.093900 0.435553 0.723097 0.919540 0.999021 0.950360 0.778790 0.505595 0.165626 0.196995
1.000000 1.000000 1.000000 1.000000 1.000000 1.000000 1.000000 1.000000 1.000000 1.000000 1.000000 1.000000 1.000000 1.000000 1.000000 1.000000 1.000000 1.000000 1.000000 1.000000 1.000000 1.000000 1.000000 1.000000 1.000000 1.000000 1.000000 1.000000 1.000000 1.000000 1.000000 1.000000 1.000000 1.000000 1.000000 1.000000 1.000000 1.000000 1.000000 1.000000 1.000000 1.000000 1.000000 1.000000 1.000000 1.000000 1.000000 1.000000 1.000000 1.000000 1.000000 1.000000 0.914180 0.914180 0.914180 0.911288 0.911288 0.911288 0.911288 0.911288 0.911288 0.911288 0.911288 0.911288 0.911288 0.911288 0.911288 0.911288 0.911288 0.911288 0.911288 0.911288 0.911288 0.911288 0.911288 0.911288 0.911288 0.911288 0.911288 0.911288 0.911288 0.911288 0.911288 0.911288 0.911288 0.911288 0.911288 0.911288 0.911288 0.911288 0.911288 0.911288 0.911288 0.911288 0.911288 0.911288 0.939720 0.941149 0.949504 0.949028 0.948485 0.946507 0.945241 0.945030 0.944945 0.945298 0.946034 0.947029 0.953246 0.954183 0.958589 0.961310 0.961283 0.963026 0.964998 0.964641 0.956355 0.956108 0.954670 0.953948 0.956061 0.954705 0.953479 0.953955 0.951605 0.955955 0.955523 0.954316 0.952677 0.951085 0.947495 0.946991 0.946027 0.946850 0.946946 0.948558 0.951611 0.951785 0.951531 0.948796 0.948397 0.949607 0.949160 0.950961 0.938784 0.938034 0.936469 0.936413 0.938908 0.938788 0.938672 0.939585 0.939283 0.939202 0.939354 0.934486 0.934250 0.927525 0.923912 0.922749 0.917287 0.913252 0.915907 0.918550 0.919720 0.920066 0.910749 0.907942 0.909016 0.907739 0.909161 0.908653 0.909789 0.910191 0.910097 0.904985 0.895520 0.893995 0.885212 0.887943 0.884239 0.881559 0.878693 0.870108 0.861619 0.873596 0.860537 0.819333 0.822868 0.827393 0.820030 0.816363 0.820664 0.822159 0.826958 0.820890 0.819747 0.813647 0.800192 0.796365 0.789603 0.774978 0.771070 0.761572 0.751398 0.745268 0.768411 0.762189 0.773915 0.778175 0.777771 0.773889 0.764131 0.752654 0.752429 0.751406 0.747146 0.723293 0.714892 0.714912 0.712595 0.699624 0.702615 0.691153 0.691577 0.678714 0.683836 0.689777 0.693431 0.688922 0.682930 0.674723 0.669890 0.683780 0.697119 0.689282 0.685849 0.694610 0.685457 0.679890 0.671300 0.674974 0.666518 0.661780 0.663389 0.696595 0.670106 0.659884 0.666162 0.666571 0.664132 0.664110 0.643049 0.637445 0.614101 0.631522 0.636256 0.651935 0.654130 0.657485 0.668237 0.674121 0.684768 0.689469 0.687412 0.646885 0.651302 0.668738 0.676701 0.666388 0.656639 0.650952 0.641299 0.678125 0.662636 0.620972 0.616821 0.617427 0.571870 0.550887 0.549212 0.550545 0.577811 0.575574 0.558957 0.532927 0.534785 0.535055 0.531187 0.530359 0.509896 0.520142 0.503796 0.480908 0.493751 0.502181 0.500871 0.484968 0.478794 0.492569 0.472974 0.497154 0.475327 0.458334 0.474511 0.473671 0.461399 0.389994 0.396661 0.387527 0.372441 0.329620 0.338917 0.348984 0.328665 0.252343 0.246749 0.247551 0.243880 0.222152 0.196483 0.183183 0.173393 0.150785 0.091938 0.042626 0.045486 0.049475 0.075956 0.038026 0.091675 0.161378 0.158028 0.158028 0.158028 0.158028 0.158028 0.158028 0.158028 0.158028 0.134585 0.134585 0.134585 0.134585 0.134585 0.134585 0.134585 0.134585 0.134585 0.158028 0.158028 0.158028 0.158028 0.158028 0.158028 0.158028 0.158028 0.158028 0.158028 0.158028 0.158028 0.158028 0.158028
0.000000 0.000000 0.000000 0.000000 0.000000 0.000000 0.000000 0.000000 0.000000 0.000000 0.000000 0.000000 0.000000 0.000000 0.000000 0.000000 0.000000 0.000000 0.000000 0.000000 0.000000 0.000000 0.000000 0.000000 0.000000 0.000000 0.000000 0.000000 0.000000 0.000000 0.000000 0.000000 0.000000 0.000000 0.000000 0.000000 0.000000 0.000000 0.000000 0.000000 0.000000 0.000000 0.000000 0.000000 0.000000 0.000000 0.000000 0.000000 0.000000 0.000000 0.000000 0.000000 0.180334 0.180334 0.180334 0.199007 0.199007 0.199007 0.199007 0.199007 0.199007 0.199007 0.199007 0.199007 0.199007 0.199007 0.199007 0.199007 0.199007 0.199007 0.199007 0.199007 0.199007 0.199007 0.199007 0.199007 0.199007 0.199007 0.199007 0.199007 0.199007 0.199007 0.199007 0.199007 0.199007 0.199007 0.199007 0.199007 0.199007 0.199007 0.199007 0.199007 0.199007 0.199007 0.199007 0.199007 0.225018 0.225018 0.225018 0.225018 0.225018 0.225018 0.225018 0.225018 0.225018 0.225018 0.225018 0.225018 0.225018 0.225018 0.225018 0.225018 0.225018 0.225018 0.225018 0.225018 0.225018 0.225018 0.225018 0.225018 0.225018 0.225018 0.225018 0.225018 0.225018 0.244339 0.244339 0.244339 0.244339 0.244339 0.244339 0.244339 0.244339 0.244339 0.244339 0.244339 0.244339 0.244339 0.244339 0.244339 0.244339 0.244339 0.244339 0.244339 0.244339 0.244339 0.244339 0.244339 0.256074 0.256074 0.256074 0.256074 0.256074 0.256074 0.256074 0.256074 0.256074 0.256074 0.256074 0.256074 0.256074 0.256074 0.256074 0.256074 0.256074 0.256074 0.256074 0.256074 0.256074 0.256074 0.256074 0.256074 0.256074 0.256074 0.256074 0.256074 0.256074 0.256074 0.256074 0.256074 0.256074 0.256074 0.256074 0.256074 0.256074 0.264906 0.264906 0.264906 0.264906 0.264906 0.264906 0.264906 0.264906 0.264906 0.264906 0.264906 0.264906 0.264906 0.264906 0.264906 0.264906 0.264906 0.264906 0.264906 0.264906 0.264906 0.264906 0.264906 0.264906 0.264906 0.264906 0.264906 0.264906 0.264906 0.264906 0.264906 0.264906 0.264906 0.264906 0.264906 0.264906 0.264906 0.264906 0.264906 0.264906 0.264906 0.264906 0.264906 0.264906 0.264906 0.264906 0.264906 0.264906 0.264906 0.264906 0.264906 0.264906 0.264906 0.264906 0.264906 0.264906 0.264906 0.264906 0.260378 0.260378 0.260378 0.260378 0.260378 0.260378 0.260378 0.260378 0.260378 0.260378 0.260378 0.260378 0.260378 0.264906 0.264906 0.264906 0.264906 0.264906 0.264906 0.264906 0.264906 0.264906 0.264906 0.264906 0.264906 0.269680 0.269680 0.269680 0.269680 0.269680 0.269680 0.269680 0.269680 0.269680 0.269680 0.269680 0.264906 0.264906 0.264906 0.264906 0.264906 0.264906 0.264906 0.264906 0.264906 0.264906 0.264906 0.256074 0.256074 0.256074 0.256074 0.256074 0.256074 0.256074 0.256074 0.256074 0.256074 0.256074 0.264906 0.264906 0.264906 0.264906 0.264906 0.264906 0.264906 0.264906 0.264906 0.264906 0.260378 0.260378 0.260378 0.260378 0.260378 0.260378 0.260378 0.260378 0.260378 0.260378 0.264906 0.264906 0.264906 0.264906 0.264906 0.264906 0.264906 0.264906 0.264906 0.251976 0.251976 0.251976 0.251976 0.251976 0.251976 0.251976 0.251976 0.251976 0.251976 0.256074 0.256074 0.256074 0.256074 0.256074 0.256074 0.256074 0.256074 0.256074 0.251976 0.251976 0.251976 0.251976 0.251976 0.251976 0.251976 0.251976 0.251976 0.251976 0.251976 0.251976 0.251976 0.251976
