# Output from CTFFind version 4.1.9, run on 2019-11-02 17:45:10
# Input file: stack11_bm3d_averaged_1_1.0_0_750_half.mrc ; Number of micrographs: 1
# Pixel size: 3.000 Angstroms ; acceleration voltage: 300.0 keV ; spherical aberration: 0.00 mm ; amplitude contrast: 0.07
# Box size: 512 pixels ; min. res.: 30.0 Angstroms ; max. res.: 5.0 Angstroms ; min. def.: 5000.0 um; max. def. 50000.0 um; num. frames averaged: 1
# 6 lines per micrograph: #1 - spatial frequency (1/Angstroms); #2 - 1D rotational average of spectrum (assuming no astigmatism); #3 - 1D rotational average of spectrum; #4 - CTF fit; #5 - cross-correlation between spectrum and CTF fit; #6 - 2sigma of expected cross correlation of noise
0.000000 0.000651 0.001302 0.001953 0.002604 0.003255 0.003906 0.004557 0.005208 0.005859 0.006510 0.007161 0.007812 0.008464 0.009115 0.009766 0.010417 0.011068 0.011719 0.012370 0.013021 0.013672 0.014323 0.014974 0.015625 0.016276 0.016927 0.017578 0.018229 0.018880 0.019531 0.020182 0.020833 0.021484 0.022135 0.022786 0.023438 0.024089 0.024740 0.025391 0.026042 0.026693 0.027344 0.027995 0.028646 0.029297 0.029948 0.030599 0.031250 0.031901 0.032552 0.033203 0.033854 0.034505 0.035156 0.035807 0.036458 0.037109 0.037760 0.038411 0.039062 0.039714 0.040365 0.041016 0.041667 0.042318 0.042969 0.043620 0.044271 0.044922 0.045573 0.046224 0.046875 0.047526 0.048177 0.048828 0.049479 0.050130 0.050781 0.051432 0.052083 0.052734 0.053385 0.054036 0.054688 0.055339 0.055990 0.056641 0.057292 0.057943 0.058594 0.059245 0.059896 0.060547 0.061198 0.061849 0.062500 0.063151 0.063802 0.064453 0.065104 0.065755 0.066406 0.067057 0.067708 0.068359 0.069010 0.069661 0.070312 0.070964 0.071615 0.072266 0.072917 0.073568 0.074219 0.074870 0.075521 0.076172 0.076823 0.077474 0.078125 0.078776 0.079427 0.080078 0.080729 0.081380 0.082031 0.082682 0.083333 0.083984 0.084635 0.085286 0.085938 0.086589 0.087240 0.087891 0.088542 0.089193 0.089844 0.090495 0.091146 0.091797 0.092448 0.093099 0.093750 0.094401 0.095052 0.095703 0.096354 0.097005 0.097656 0.098307 0.098958 0.099609 0.100260 0.100911 0.101562 0.102214 0.102865 0.103516 0.104167 0.104818 0.105469 0.106120 0.106771 0.107422 0.108073 0.108724 0.109375 0.110026 0.110677 0.111328 0.111979 0.112630 0.113281 0.113932 0.114583 0.115234 0.115885 0.116536 0.117188 0.117839 0.118490 0.119141 0.119792 0.120443 0.121094 0.121745 0.122396 0.123047 0.123698 0.124349 0.125000 0.125651 0.126302 0.126953 0.127604 0.128255 0.128906 0.129557 0.130208 0.130859 0.131510 0.132161 0.132812 0.133464 0.134115 0.134766 0.135417 0.136068 0.136719 0.137370 0.138021 0.138672 0.139323 0.139974 0.140625 0.141276 0.141927 0.142578 0.143229 0.143880 0.144531 0.145182 0.145833 0.146484 0.147135 0.147786 0.148438 0.149089 0.149740 0.150391 0.151042 0.151693 0.152344 0.152995 0.153646 0.154297 0.154948 0.155599 0.156250 0.156901 0.157552 0.158203 0.158854 0.159505 0.160156 0.160807 0.161458 0.162109 0.162760 0.163411 0.164062 0.164714 0.165365 0.166016 0.166667 0.167318 0.167969 0.168620 0.169271 0.169922 0.170573 0.171224 0.171875 0.172526 0.173177 0.173828 0.174479 0.175130 0.175781 0.176432 0.177083 0.177734 0.178385 0.179036 0.179688 0.180339 0.180990 0.181641 0.182292 0.182943 0.183594 0.184245 0.184896 0.185547 0.186198 0.186849 0.187500 0.188151 0.188802 0.189453 0.190104 0.190755 0.191406 0.192057 0.192708 0.193359 0.194010 0.194661 0.195312 0.195964 0.196615 0.197266 0.197917 0.198568 0.199219 0.199870 0.200521 0.201172 0.201823 0.202474 0.203125 0.203776 0.204427 0.205078 0.205729 0.206380 0.207031 0.207682 0.208333 0.208984 0.209635 0.210286 0.210938 0.211589 0.212240 0.212891 0.213542 0.214193 0.214844 0.215495 0.216146 0.216797 0.217448 0.218099 0.218750 0.219401 0.220052 0.220703 0.221354 0.222005 0.222656 0.223307 0.223958 0.224609 0.225260 0.225911 0.226562 0.227214 0.227865 0.228516 0.229167 0.229818 0.230469 0.231120 0.231771 0.232422 0.233073 0.233724 0.234375 0.235026 0.235677
       0.31740        0.31740        0.31740        0.31740        0.31740        0.31740        0.31740        0.31740        0.31740        0.31739        0.31740        0.31740        0.31740        0.31740        0.31740        0.31740        0.31740        0.31739        0.31740        0.31740        0.31740        0.31739        0.31739        0.31740        0.31740        0.31740        0.31740        0.31740        0.31740        0.31740        0.31740        0.31740        0.31740        0.31740        0.31740        0.31740        0.31740        0.31739        0.31740        0.31739        0.31740        0.31740        0.31740        0.31740        0.31739        0.31740        0.31740        0.31740        0.31739        0.31740        0.31740        0.68454        0.87166        0.52352        0.08814       -0.06496       -0.42492       -0.20777       -0.29599       -0.11586       -0.07686       -0.11790       -0.06718       -0.20846       -0.23540       -0.25931       -0.32876       -0.33610       -0.48960       -0.38267       -0.46681       -0.44832       -0.42161       -0.47083       -0.54706       -0.56298       -0.58911       -0.62703       -0.57902       -0.41736       -0.37915       -0.32970       -0.31506       -0.21353       -0.20102        0.01717        0.07111        0.10484        0.22576        0.37230        0.44280        0.51702        0.55964        0.55525        0.57073        0.69919        0.81376        0.74293        0.73353        0.67251        0.58439        0.48676        0.40922        0.49397        0.37621        0.20443        0.07717        0.04825        0.01121       -0.06082       -0.03922       -0.02546       -0.07381       -0.00735       -0.01903        0.21155        0.24970        0.29086        0.43192        0.46606        0.40484        0.53651        0.63077        0.70350        0.76592        0.69212        0.65813        0.70134        0.58689        0.50585        0.41907        0.29002        0.18537        0.15706        0.10586        0.03983        0.01268       -0.00215        0.07577        0.13210        0.20388        0.28326        0.40203        0.41710        0.51504        0.60488        0.63609        0.61666        0.63117        0.55418        0.44720        0.44486        0.35120        0.23040        0.18407        0.14917        0.10798        0.12055        0.06630        0.09841        0.22396        0.26270        0.34019        0.35016        0.45514        0.51539        0.53730        0.55018        0.46956        0.42989        0.39344        0.37167        0.30805        0.25048        0.19958        0.18608        0.16030        0.19056        0.17810        0.26891        0.33228        0.36396        0.42520        0.46296        0.47912        0.44673        0.39470        0.41770        0.37471        0.28884        0.27222        0.22561        0.21422        0.19551        0.21328        0.22970        0.32961        0.37432        0.36537        0.46043        0.44157        0.43891        0.43244        0.39529        0.34500        0.32860        0.27588        0.23669        0.23734        0.26975        0.27084        0.30231        0.30174        0.34073        0.32983        0.40923        0.41820        0.37478        0.34451        0.36464        0.27940        0.28114        0.26208        0.27664        0.26023        0.28028        0.29217        0.31527        0.35323        0.36091        0.36010        0.33179        0.35079        0.28434        0.32013        0.26936        0.25098        0.28618        0.28026        0.30656        0.31317        0.33386        0.32855        0.31452        0.31649        0.28844        0.28893        0.26086        0.28093        0.26603        0.31058        0.28301        0.26411        0.30900        0.31247        0.31738        0.29010        0.30117        0.29149        0.24633        0.23890        0.22213        0.28017        0.27259        0.31248        0.31685        0.32048        0.31765        0.30602        0.27808        0.28571        0.33119        0.27103        0.26474        0.29623        0.29410        0.34009        0.33571        0.36036        0.33132        0.31492        0.28045        0.26613        0.26494        0.22890        0.26973        0.30031        0.29415        0.27818        0.29481        0.27248        0.32420        0.32525        0.24982        0.21790        0.27548        0.33894        0.27801        0.31207        0.32522        0.32643        0.30242        0.32498        0.34265        0.29758        0.29340        0.26318        0.28017        0.35425        0.35155        0.26036        0.26955        0.25334        0.28317        0.22369        0.29138        0.22064        0.25262        0.33164        0.32101        0.34639        0.29631        0.24344        0.24356        0.24321        0.24261        0.18601        0.22459        0.25842        0.29846        0.27902        0.30243        0.29778        0.28081        0.27873        0.21054        0.17384        0.19016        0.23400        0.20324        0.21439        0.23068        0.21093        0.24744        0.33540        0.29487        0.30491        0.22178        0.25560        0.23566        0.28389        0.30382        0.14748        0.21439        0.22242        0.12603        0.22523        0.11014        0.15274        0.18819        0.11805       -0.10671       -0.57548
2.589988 2.562934 2.536028 2.509267 2.482654 2.456187 2.429866 2.403693 2.377666 2.351786 2.326053 2.300466 2.275026 2.249733 2.224586 2.199586 2.174733 2.150027 2.125467 2.101054 2.076787 2.052668 2.028695 2.004869 1.981189 1.957656 1.934270 1.911031 1.887938 1.864992 1.842193 1.819540 1.797034 1.774675 1.752463 1.730397 1.708478 1.686705 1.665080 1.643601 1.622268 1.601083 1.580044 1.559152 1.538406 1.517808 1.497356 1.477051 1.456892 1.436880 1.417015 1.638137 2.044675 1.618137 1.131210 0.987981 0.424955 0.810851 0.564441 0.836522 0.774256 0.788166 0.754553 0.709961 0.563789 0.513709 0.486824 0.447154 0.206686 0.381768 0.203897 0.306710 0.239476 0.180402 0.129092 0.004871 0.042568 -0.016206 -0.055165 0.103355 0.206678 0.196762 0.154679 0.329893 0.197462 0.494027 0.576314 0.548596 0.593491 0.876966 0.808479 0.945914 0.888409 0.973803 0.940961 1.078791 1.140127 1.075653 1.124469 0.951243 0.945769 0.784662 0.653645 0.769477 0.704590 0.464472 0.305848 0.254142 0.215084 0.147924 0.088756 0.125505 0.066016 0.150661 0.053138 0.261843 0.377514 0.355920 0.480407 0.583096 0.466882 0.545717 0.698156 0.747068 0.781362 0.732324 0.730266 0.715758 0.626218 0.570628 0.427953 0.285830 0.204596 0.076909 0.128259 -0.044356 -0.028101 -0.083684 -0.038578 0.003182 0.142913 0.090340 0.300949 0.276187 0.365608 0.459448 0.520109 0.508000 0.518843 0.504960 0.331371 0.308501 0.273815 0.100952 0.045989 -0.004058 -0.036272 -0.041973 -0.093021 -0.107071 -0.017065 0.056535 0.131536 0.136095 0.228814 0.333449 0.307694 0.418548 0.389958 0.281442 0.231516 0.246619 0.204994 0.101206 0.070041 0.014952 0.002061 0.001122 -0.018605 0.057367 0.145339 0.140696 0.224301 0.254458 0.303597 0.261632 0.220780 0.190007 0.210898 0.147859 0.043492 0.042891 -0.010841 -0.009886 -0.030864 0.016084 0.014294 0.172750 0.123923 0.180310 0.239040 0.198701 0.191566 0.198424 0.136015 0.103463 0.062579 0.042884 -0.037941 0.006118 0.021711 0.052978 0.049718 0.079014 0.096851 0.118701 0.139780 0.185771 0.076134 0.097435 0.069921 -0.001067 0.005284 0.008136 -0.012000 0.019366 0.002315 0.028937 0.070890 0.082399 0.117894 0.047656 0.096781 0.052673 0.007347 0.060277 -0.034936 -0.011295 0.023108 -0.003781 0.051017 0.051741 0.052096 0.054832 0.051585 0.046352 0.019919 0.000462 0.005499 0.011716 -0.014665 0.069018 -0.017443 0.007858 0.054991 0.047261 0.033163 0.044523 0.036603 0.014194 -0.023457 -0.047144 -0.014700 0.015081 0.018918 0.062032 0.057766 0.057767 0.079523 0.062658 0.020722 0.062041 0.084016 0.016076 0.019522 0.058447 0.050483 0.099870 0.106962 0.108259 0.111463 0.064604 0.038309 0.029022 0.006711 -0.004035 0.046266 0.074196 0.038513 0.029642 0.031937 0.020305 0.087598 0.053854 -0.048629 -0.053128 0.031887 0.094894 0.005742 0.027942 0.056144 0.086693 0.027809 0.054918 0.080362 0.030682 0.039007 -0.037832 0.016425 0.112036 0.065680 -0.054010 -0.019831 -0.053372 0.024815 -0.108249 0.035280 -0.109343 -0.030560 0.056012 0.029581 0.032513 -0.043273 -0.059191 -0.081427 -0.080076 -0.065285 -0.123174 -0.093803 -0.038776 0.020715 -0.024190 0.036013 -0.012371 -0.039088 0.049785 -0.105589 -0.098127 -0.091941 -0.007462 -0.048243 -0.042866 0.002086 0.015358 0.012779 0.180372 -0.010766 0.142127 0.010623 0.262525 0.253411 0.324528 0.279791 0.113725 0.217499 0.262986 0.057211 0.246308 0.117519 0.110786 0.258271 0.120357 -0.594424
0.072396 0.072899 0.074406 0.076917 0.080433 0.084951 0.090471 0.096992 0.104510 0.113023 0.122528 0.133020 0.144495 0.156945 0.170363 0.184740 0.200065 0.216325 0.233505 0.251588 0.270553 0.290378 0.311037 0.332500 0.354735 0.377704 0.401366 0.425675 0.450580 0.476025 0.501950 0.528287 0.554964 0.581901 0.609014 0.636211 0.663393 0.690456 0.717288 0.743770 0.769776 0.795175 0.819827 0.843587 0.866305 0.887823 0.907979 0.926606 0.943535 0.958590 0.971596 0.982374 0.990747 0.996537 0.999569 0.999673 0.996682 0.990437 0.980787 0.967592 0.950724 0.930072 0.905537 0.877044 0.844534 0.807976 0.767361 0.722709 0.674070 0.621526 0.565191 0.505217 0.441791 0.375140 0.305529 0.233263 0.158689 0.082193 0.004202 0.074820 0.154369 0.233909 0.312867 0.390645 0.466617 0.540136 0.610541 0.677159 0.739316 0.796341 0.847574 0.892374 0.930131 0.960269 0.982263 0.995640 0.999996 0.995001 0.980409 0.956069 0.921930 0.878052 0.824610 0.761899 0.690340 0.610484 0.523008 0.428718 0.328545 0.223540 0.114866 0.003787 0.108341 0.220085 0.329957 0.436424 0.537940 0.632959 0.719967 0.797505 0.864195 0.918772 0.960104 0.987227 0.999368 0.995964 0.976695 0.941491 0.890556 0.824375 0.743722 0.649660 0.543538 0.426977 0.301858 0.170292 0.034598 0.102742 0.239120 0.371853 0.498230 0.615574 0.721303 0.812982 0.888395 0.945598 0.982978 0.999309 0.993797 0.966116 0.916446 0.845484 0.754459 0.645120 0.519720 0.380982 0.232052 0.076432 0.082088 0.239524 0.391791 0.534814 0.664635 0.777531 0.870128 0.939512 0.983330 0.999886 0.988216 0.948147 0.880339 0.786296 0.668358 0.529659 0.374067 0.206088 0.030748 0.146549 0.320178 0.484475 0.633923 0.763345 0.868091 0.944220 0.988667 0.999381 0.975438 0.917120 0.825948 0.704672 0.557218 0.388585 0.204695 0.012201 0.181741 0.369734 0.544420 0.698771 0.826391 0.921786 0.980633 0.999988 0.978466 0.916350 0.815640 0.680021 0.514773 0.326583 0.123309 0.086340 0.293158 0.487841 0.661419 0.805673 0.913546 0.979515 0.999897 0.973094 0.899734 0.782713 0.627126 0.440087 0.230436 0.008348 0.215141 0.428677 0.621166 0.782354 0.903408 0.977417 0.999832 0.968777 0.885238 0.753096 0.578994 0.372058 0.143455 0.094192 0.327468 0.542928 0.727880 0.871150 0.963788 0.999672 0.975957 0.893342 0.756128 0.572063 0.351949 0.109061 0.141623 0.384338 0.603502 0.784747 0.915883 0.987751 0.994929 0.936185 0.814677 0.637866 0.417115 0.167019 0.095522 0.352409 0.585610 0.778409 0.916653 0.989841 0.991964 0.922078 0.784498 0.588615 0.348341 0.081156 0.193096 0.453676 0.680513 0.855775 0.965312 0.999865 0.955912 0.836099 0.649184 0.409477 0.135823 0.149833 0.424175 0.664416 0.850207 0.965421 0.999610 0.949037 0.817161 0.614509 0.357932 0.069278 0.226416 0.503054 0.735817 0.903396 0.990018 0.987011 0.893767 0.717977 0.475125 0.187198 0.119208 0.415328 0.672899 0.866899 0.978027 0.994718 0.914441 0.744153 0.499833 0.205069 0.111115 0.417080 0.681729 0.877691 0.984224 0.989498 0.892031 0.701066 0.435822 0.123688 0.202537 0.508044 0.759718 0.929794 0.998990 0.958804 0.812696 0.575944 0.274187 0.059246 0.386938 0.671583 0.880250 0.988264 0.982248 0.861911 0.640349 0.342777 0.003783 0.336612 0.637631 0.862674 0.983818 0.985418 0.866267 0.640029 0.333851 0.014769 0.362488 0.665457 0.884904 0.992158 0.972544 0.827545 0.574926 0.246720 0.114680
1.000000 1.000000 1.000000 1.000000 1.000000 1.000000 1.000000 1.000000 1.000000 1.000000 1.000000 1.000000 1.000000 1.000000 1.000000 1.000000 1.000000 1.000000 1.000000 1.000000 1.000000 1.000000 1.000000 1.000000 1.000000 1.000000 1.000000 1.000000 1.000000 1.000000 1.000000 1.000000 1.000000 1.000000 1.000000 1.000000 1.000000 1.000000 1.000000 1.000000 1.000000 1.000000 1.000000 1.000000 1.000000 1.000000 1.000000 1.000000 1.000000 1.000000 1.000000 1.000000 0.933265 0.933265 0.933265 0.924070 0.924070 0.924070 0.924070 0.924070 0.924070 0.924070 0.924070 0.924070 0.924070 0.924070 0.924070 0.924070 0.924070 0.924070 0.924070 0.924070 0.924070 0.924070 0.924070 0.924070 0.924070 0.924070 0.924070 0.924070 0.924070 0.924070 0.924070 0.924070 0.924070 0.924070 0.924070 0.924070 0.924070 0.924070 0.924070 0.924070 0.924070 0.924070 0.924070 0.924070 0.949886 0.951095 0.958949 0.958782 0.958277 0.956178 0.955264 0.954143 0.953690 0.953965 0.954572 0.955407 0.967152 0.968171 0.969705 0.970508 0.971217 0.971874 0.971730 0.972521 0.971775 0.971245 0.970748 0.966816 0.967432 0.968021 0.968196 0.969243 0.969129 0.971343 0.971459 0.970889 0.970059 0.969369 0.968704 0.968313 0.968043 0.968532 0.968800 0.970061 0.973198 0.972623 0.972306 0.972464 0.972568 0.972739 0.973136 0.973909 0.970040 0.968523 0.966862 0.964692 0.968868 0.966030 0.965805 0.967167 0.967553 0.967954 0.966952 0.963129 0.957887 0.957276 0.954678 0.945262 0.943796 0.944424 0.946658 0.947063 0.945605 0.937976 0.938561 0.931781 0.933503 0.936750 0.931080 0.930875 0.932033 0.931145 0.929853 0.929236 0.926222 0.923454 0.921756 0.921593 0.924628 0.924925 0.926109 0.925933 0.920358 0.912127 0.899504 0.897921 0.893535 0.896635 0.885923 0.885969 0.885995 0.882127 0.885481 0.884791 0.885699 0.882727 0.866714 0.849422 0.843473 0.847397 0.852299 0.847437 0.846230 0.839275 0.850324 0.831248 0.843756 0.854279 0.851051 0.850889 0.850415 0.848350 0.842970 0.843848 0.845715 0.847311 0.846068 0.845687 0.844657 0.828065 0.829663 0.765444 0.748001 0.741010 0.746758 0.753360 0.755282 0.754377 0.760865 0.765829 0.754858 0.737884 0.730603 0.723214 0.727897 0.728611 0.731503 0.717862 0.689201 0.683544 0.652546 0.670482 0.683641 0.644168 0.668474 0.679163 0.676964 0.675363 0.668898 0.666296 0.661428 0.664295 0.672080 0.684928 0.702366 0.724833 0.721563 0.712283 0.709455 0.690092 0.683682 0.676752 0.688624 0.669842 0.666496 0.684463 0.684676 0.670483 0.648956 0.637368 0.627649 0.620485 0.629147 0.620031 0.615333 0.604137 0.580167 0.573674 0.608817 0.625370 0.645586 0.615554 0.601447 0.588298 0.566827 0.580553 0.527033 0.526644 0.547533 0.555344 0.532887 0.524983 0.535823 0.543388 0.545553 0.535441 0.519672 0.507013 0.522098 0.554409 0.544805 0.527814 0.530826 0.528532 0.519843 0.430373 0.424815 0.395085 0.361081 0.306962 0.284836 0.277770 0.261438 0.250259 0.215409 0.211452 0.222601 0.229454 0.240545 0.242577 0.225742 0.235336 0.230455 0.216945 0.155199 0.145246 0.138059 0.127064 0.126747 0.105431 0.128305 0.192324 0.194528 0.194528 0.194528 0.194528 0.194528 0.194528 0.205335 0.205335 0.205335 0.205335 0.205335 0.205335 0.205335 0.205335 0.205335 0.213399 0.213399 0.213399 0.213399 0.213399 0.213399 0.213399 0.213399 0.213399 0.213399 0.213399 0.213399 0.213399 0.213399
0.000000 0.000000 0.000000 0.000000 0.000000 0.000000 0.000000 0.000000 0.000000 0.000000 0.000000 0.000000 0.000000 0.000000 0.000000 0.000000 0.000000 0.000000 0.000000 0.000000 0.000000 0.000000 0.000000 0.000000 0.000000 0.000000 0.000000 0.000000 0.000000 0.000000 0.000000 0.000000 0.000000 0.000000 0.000000 0.000000 0.000000 0.000000 0.000000 0.000000 0.000000 0.000000 0.000000 0.000000 0.000000 0.000000 0.000000 0.000000 0.000000 0.000000 0.000000 0.000000 0.180334 0.180334 0.180334 0.199007 0.199007 0.199007 0.199007 0.199007 0.199007 0.199007 0.199007 0.199007 0.199007 0.199007 0.199007 0.199007 0.199007 0.199007 0.199007 0.199007 0.199007 0.199007 0.199007 0.199007 0.199007 0.199007 0.199007 0.199007 0.199007 0.199007 0.199007 0.199007 0.199007 0.199007 0.199007 0.199007 0.199007 0.199007 0.199007 0.199007 0.199007 0.199007 0.199007 0.199007 0.225018 0.225018 0.225018 0.225018 0.225018 0.225018 0.225018 0.225018 0.225018 0.225018 0.225018 0.225018 0.225018 0.225018 0.225018 0.225018 0.225018 0.225018 0.225018 0.225018 0.225018 0.225018 0.225018 0.225018 0.225018 0.225018 0.225018 0.225018 0.225018 0.244339 0.244339 0.244339 0.244339 0.244339 0.244339 0.244339 0.244339 0.244339 0.244339 0.244339 0.244339 0.244339 0.244339 0.244339 0.244339 0.244339 0.244339 0.244339 0.244339 0.244339 0.244339 0.244339 0.251976 0.251976 0.251976 0.251976 0.251976 0.251976 0.251976 0.251976 0.251976 0.251976 0.251976 0.251976 0.251976 0.251976 0.251976 0.251976 0.251976 0.251976 0.251976 0.251976 0.264906 0.264906 0.264906 0.264906 0.264906 0.264906 0.264906 0.264906 0.264906 0.264906 0.264906 0.264906 0.264906 0.264906 0.264906 0.264906 0.264906 0.264906 0.264906 0.264906 0.264906 0.264906 0.264906 0.264906 0.264906 0.264906 0.264906 0.264906 0.264906 0.264906 0.264906 0.264906 0.264906 0.264906 0.264906 0.264906 0.264906 0.264906 0.264906 0.264906 0.264906 0.264906 0.264906 0.264906 0.264906 0.264906 0.264906 0.264906 0.264906 0.264906 0.264906 0.264906 0.264906 0.264906 0.264906 0.264906 0.264906 0.264906 0.264906 0.264906 0.264906 0.264906 0.256074 0.256074 0.256074 0.256074 0.256074 0.256074 0.256074 0.256074 0.256074 0.256074 0.256074 0.256074 0.256074 0.256074 0.269680 0.269680 0.269680 0.269680 0.269680 0.269680 0.269680 0.269680 0.269680 0.269680 0.269680 0.269680 0.264906 0.264906 0.264906 0.264906 0.264906 0.264906 0.264906 0.264906 0.264906 0.264906 0.264906 0.264906 0.269680 0.269680 0.269680 0.269680 0.269680 0.269680 0.269680 0.269680 0.269680 0.269680 0.269680 0.264906 0.264906 0.264906 0.264906 0.264906 0.264906 0.264906 0.264906 0.264906 0.264906 0.264906 0.256074 0.256074 0.256074 0.256074 0.256074 0.256074 0.256074 0.256074 0.256074 0.256074 0.256074 0.264906 0.264906 0.264906 0.264906 0.264906 0.264906 0.264906 0.264906 0.264906 0.264906 0.260378 0.260378 0.260378 0.260378 0.260378 0.260378 0.260378 0.260378 0.260378 0.260378 0.256074 0.256074 0.256074 0.256074 0.256074 0.256074 0.256074 0.256074 0.256074 0.256074 0.260378 0.260378 0.260378 0.260378 0.260378 0.260378 0.260378 0.260378 0.260378 0.256074 0.256074 0.256074 0.256074 0.256074 0.256074 0.256074 0.256074 0.256074 0.251976 0.251976 0.251976 0.251976 0.251976 0.251976 0.251976 0.251976 0.251976 0.251976 0.251976 0.251976 0.251976 0.251976
