# Output from CTFFind version 4.1.9, run on 2019-11-02 17:59:04
# Input file: stack11_bm3d_averaged_1_1.75_0_50_half.mrc ; Number of micrographs: 1
# Pixel size: 3.000 Angstroms ; acceleration voltage: 300.0 keV ; spherical aberration: 0.00 mm ; amplitude contrast: 0.07
# Box size: 512 pixels ; min. res.: 30.0 Angstroms ; max. res.: 5.0 Angstroms ; min. def.: 5000.0 um; max. def. 50000.0 um; num. frames averaged: 1
# 6 lines per micrograph: #1 - spatial frequency (1/Angstroms); #2 - 1D rotational average of spectrum (assuming no astigmatism); #3 - 1D rotational average of spectrum; #4 - CTF fit; #5 - cross-correlation between spectrum and CTF fit; #6 - 2sigma of expected cross correlation of noise
0.000000 0.000651 0.001302 0.001953 0.002604 0.003255 0.003906 0.004557 0.005208 0.005859 0.006510 0.007161 0.007812 0.008464 0.009115 0.009766 0.010417 0.011068 0.011719 0.012370 0.013021 0.013672 0.014323 0.014974 0.015625 0.016276 0.016927 0.017578 0.018229 0.018880 0.019531 0.020182 0.020833 0.021484 0.022135 0.022786 0.023438 0.024089 0.024740 0.025391 0.026042 0.026693 0.027344 0.027995 0.028646 0.029297 0.029948 0.030599 0.031250 0.031901 0.032552 0.033203 0.033854 0.034505 0.035156 0.035807 0.036458 0.037109 0.037760 0.038411 0.039062 0.039714 0.040365 0.041016 0.041667 0.042318 0.042969 0.043620 0.044271 0.044922 0.045573 0.046224 0.046875 0.047526 0.048177 0.048828 0.049479 0.050130 0.050781 0.051432 0.052083 0.052734 0.053385 0.054036 0.054688 0.055339 0.055990 0.056641 0.057292 0.057943 0.058594 0.059245 0.059896 0.060547 0.061198 0.061849 0.062500 0.063151 0.063802 0.064453 0.065104 0.065755 0.066406 0.067057 0.067708 0.068359 0.069010 0.069661 0.070312 0.070964 0.071615 0.072266 0.072917 0.073568 0.074219 0.074870 0.075521 0.076172 0.076823 0.077474 0.078125 0.078776 0.079427 0.080078 0.080729 0.081380 0.082031 0.082682 0.083333 0.083984 0.084635 0.085286 0.085938 0.086589 0.087240 0.087891 0.088542 0.089193 0.089844 0.090495 0.091146 0.091797 0.092448 0.093099 0.093750 0.094401 0.095052 0.095703 0.096354 0.097005 0.097656 0.098307 0.098958 0.099609 0.100260 0.100911 0.101562 0.102214 0.102865 0.103516 0.104167 0.104818 0.105469 0.106120 0.106771 0.107422 0.108073 0.108724 0.109375 0.110026 0.110677 0.111328 0.111979 0.112630 0.113281 0.113932 0.114583 0.115234 0.115885 0.116536 0.117188 0.117839 0.118490 0.119141 0.119792 0.120443 0.121094 0.121745 0.122396 0.123047 0.123698 0.124349 0.125000 0.125651 0.126302 0.126953 0.127604 0.128255 0.128906 0.129557 0.130208 0.130859 0.131510 0.132161 0.132812 0.133464 0.134115 0.134766 0.135417 0.136068 0.136719 0.137370 0.138021 0.138672 0.139323 0.139974 0.140625 0.141276 0.141927 0.142578 0.143229 0.143880 0.144531 0.145182 0.145833 0.146484 0.147135 0.147786 0.148438 0.149089 0.149740 0.150391 0.151042 0.151693 0.152344 0.152995 0.153646 0.154297 0.154948 0.155599 0.156250 0.156901 0.157552 0.158203 0.158854 0.159505 0.160156 0.160807 0.161458 0.162109 0.162760 0.163411 0.164062 0.164714 0.165365 0.166016 0.166667 0.167318 0.167969 0.168620 0.169271 0.169922 0.170573 0.171224 0.171875 0.172526 0.173177 0.173828 0.174479 0.175130 0.175781 0.176432 0.177083 0.177734 0.178385 0.179036 0.179688 0.180339 0.180990 0.181641 0.182292 0.182943 0.183594 0.184245 0.184896 0.185547 0.186198 0.186849 0.187500 0.188151 0.188802 0.189453 0.190104 0.190755 0.191406 0.192057 0.192708 0.193359 0.194010 0.194661 0.195312 0.195964 0.196615 0.197266 0.197917 0.198568 0.199219 0.199870 0.200521 0.201172 0.201823 0.202474 0.203125 0.203776 0.204427 0.205078 0.205729 0.206380 0.207031 0.207682 0.208333 0.208984 0.209635 0.210286 0.210938 0.211589 0.212240 0.212891 0.213542 0.214193 0.214844 0.215495 0.216146 0.216797 0.217448 0.218099 0.218750 0.219401 0.220052 0.220703 0.221354 0.222005 0.222656 0.223307 0.223958 0.224609 0.225260 0.225911 0.226562 0.227214 0.227865 0.228516 0.229167 0.229818 0.230469 0.231120 0.231771 0.232422 0.233073 0.233724 0.234375 0.235026 0.235677
       0.31917        0.31917        0.31917        0.31917        0.31917        0.31917        0.31917        0.31917        0.31917        0.31917        0.31917        0.31917        0.31917        0.31917        0.31917        0.31917        0.31917        0.31917        0.31917        0.31917        0.31917        0.31917        0.31917        0.31917        0.31917        0.31917        0.31917        0.31917        0.31917        0.31917        0.31917        0.31917        0.31917        0.31917        0.31917        0.31917        0.31917        0.31917        0.31917        0.31917        0.31917        0.31917        0.31917        0.31917        0.31917        0.31917        0.31917        0.31917        0.31917        0.31917        0.31917        0.68376        0.86554        0.52407        0.09142       -0.05706       -0.41980       -0.20162       -0.29432       -0.11546       -0.07173       -0.11717       -0.06395       -0.20252       -0.22955       -0.25110       -0.32695       -0.33656       -0.48113       -0.37781       -0.46054       -0.44464       -0.41680       -0.46101       -0.52699       -0.55339       -0.58112       -0.61308       -0.57195       -0.40822       -0.37466       -0.32572       -0.30786       -0.21049       -0.19847        0.02226        0.08568        0.11801        0.23042        0.37075        0.44328        0.51072        0.56007        0.55880        0.56603        0.69460        0.81004        0.73070        0.73215        0.65829        0.57500        0.48071        0.40997        0.49667        0.38174        0.21528        0.07976        0.05559        0.02457       -0.05766       -0.02898       -0.01001       -0.06078       -0.00760       -0.01343        0.21800        0.25262        0.28589        0.42562        0.45219        0.40464        0.54617        0.62296        0.69017        0.75388        0.68612        0.64866        0.69250        0.58089        0.49566        0.42002        0.28936        0.19760        0.15523        0.10758        0.04305        0.01583        0.00783        0.07765        0.13099        0.20990        0.28072        0.39384        0.42546        0.50556        0.60161        0.62810        0.62704        0.62835        0.55920        0.44974        0.45501        0.35640        0.23076        0.17790        0.14694        0.12143        0.12531        0.08207        0.11239        0.24449        0.26712        0.35152        0.36719        0.44651        0.51324        0.53945        0.54841        0.47266        0.43677        0.38997        0.35727        0.30406        0.25493        0.20587        0.19516        0.17176        0.19849        0.18506        0.27770        0.33528        0.37344        0.43102        0.45748        0.47834        0.43413        0.39156        0.41418        0.36951        0.28438        0.26455        0.22152        0.21826        0.19511        0.22430        0.23556        0.33017        0.37187        0.37369        0.46512        0.43386        0.43472        0.42945        0.39717        0.34503        0.32179        0.27653        0.25528        0.24074        0.27572        0.27582        0.30373        0.30998        0.33525        0.32574        0.40637        0.42124        0.37915        0.34904        0.37221        0.28705        0.28479        0.26132        0.28641        0.26511        0.27970        0.29071        0.31082        0.34660        0.36572        0.36595        0.34650        0.35820        0.29077        0.32016        0.27016        0.24262        0.29442        0.28860        0.31362        0.30949        0.32458        0.33489        0.31812        0.31742        0.28707        0.29636        0.27181        0.28526        0.25878        0.30100        0.28721        0.27444        0.30685        0.31667        0.32455        0.27912        0.30444        0.27829        0.26100        0.25344        0.22080        0.28299        0.27907        0.33273        0.31129        0.31723        0.31990        0.31568        0.27706        0.29896        0.32589        0.26865        0.25862        0.29891        0.28926        0.33483        0.32950        0.34032        0.32913        0.30051        0.28026        0.27807        0.25201        0.22450        0.28671        0.31152        0.29960        0.28559        0.29602        0.27455        0.32919        0.32133        0.25286        0.21985        0.28234        0.31950        0.27535        0.30782        0.32766        0.33049        0.31420        0.31413        0.33986        0.31088        0.28760        0.25746        0.29813        0.35898        0.36533        0.27406        0.26419        0.26152        0.29788        0.22349        0.28792        0.23646        0.24874        0.33407        0.32483        0.34533        0.29844        0.25131        0.23743        0.24200        0.23089        0.20597        0.23413        0.28208        0.30977        0.24515        0.31915        0.32034        0.26965        0.26236        0.20402        0.16193        0.21072        0.22432        0.21507        0.21490        0.22645        0.18567        0.25277        0.35196        0.32185        0.33167        0.23836        0.21169        0.20408        0.28481        0.28711        0.13250        0.21042        0.23586        0.11799        0.19511        0.12127        0.13067        0.19646        0.09130       -0.10966       -0.56754
2.611909 2.584567 2.557374 2.530329 2.503432 2.476684 2.450085 2.423634 2.397332 2.371178 2.345173 2.319317 2.293609 2.268050 2.242639 2.217377 2.192263 2.167298 2.142482 2.117814 2.093294 2.068924 2.044701 2.020628 1.996702 1.972926 1.949298 1.925819 1.902488 1.879306 1.856272 1.833387 1.810650 1.788062 1.765623 1.743332 1.721190 1.699196 1.677351 1.655654 1.634106 1.612707 1.591456 1.570353 1.549400 1.528594 1.507938 1.487430 1.467070 1.446859 1.426797 1.645859 2.056228 1.627952 1.139734 0.998773 0.426310 0.819033 0.563382 0.837856 0.780979 0.794572 0.754781 0.715398 0.569585 0.523816 0.487642 0.440124 0.214420 0.382478 0.201647 0.311714 0.237970 0.185324 0.141138 0.014007 0.040144 -0.008266 -0.058037 0.108824 0.210573 0.191734 0.160462 0.329757 0.194860 0.495433 0.589738 0.565875 0.602903 0.874517 0.814192 0.940829 0.889114 0.981364 0.949266 1.076961 1.141644 1.063134 1.132287 0.940494 0.940316 0.782380 0.652391 0.776118 0.710907 0.470545 0.312085 0.249534 0.228337 0.147766 0.094635 0.133892 0.080739 0.142049 0.058658 0.263181 0.379282 0.350875 0.478347 0.567020 0.455663 0.561204 0.700066 0.734104 0.775356 0.724735 0.723125 0.704817 0.626243 0.560974 0.422254 0.286952 0.209461 0.078590 0.125612 -0.048339 -0.033777 -0.073247 -0.044069 -0.003792 0.147995 0.086619 0.284589 0.284872 0.359257 0.454627 0.521098 0.506299 0.518925 0.511468 0.333280 0.311671 0.283002 0.098316 0.045850 -0.024475 -0.022238 -0.043600 -0.086109 -0.103540 0.007765 0.063470 0.127611 0.160080 0.228815 0.320395 0.318269 0.407095 0.395900 0.286486 0.234911 0.235614 0.187992 0.109686 0.082255 0.014373 0.005626 0.016754 -0.015533 0.067676 0.148811 0.142918 0.243921 0.252091 0.307382 0.238686 0.220930 0.175925 0.215334 0.131458 0.044103 0.025041 -0.009727 -0.010635 -0.035851 0.024329 0.021327 0.162955 0.136751 0.178469 0.239232 0.196263 0.179848 0.197635 0.144876 0.093685 0.051913 0.053788 -0.021378 0.004933 0.026113 0.056080 0.057875 0.078346 0.087018 0.123396 0.137964 0.192528 0.084700 0.099499 0.078665 0.013155 0.005639 0.009220 0.005990 0.018227 0.006152 0.027332 0.066285 0.084125 0.130149 0.057552 0.117307 0.061695 0.016370 0.060395 -0.033977 -0.010900 0.038145 0.005711 0.063739 0.047949 0.049413 0.080116 0.055517 0.038430 0.028689 0.011231 0.025102 0.009677 -0.012361 0.067995 -0.007743 0.020888 0.059263 0.059311 0.044189 0.048769 0.041204 0.020458 0.000846 -0.026031 -0.012347 0.030258 0.041898 0.091109 0.060767 0.066747 0.091781 0.082726 0.030988 0.083743 0.090500 0.018281 0.021986 0.077154 0.055307 0.100082 0.110844 0.083021 0.130330 0.073148 0.040357 0.054419 -0.004710 0.011193 0.076006 0.087329 0.058575 0.045568 0.036616 0.031148 0.106364 0.059095 -0.034525 -0.041841 0.039178 0.088848 0.012504 0.028501 0.075656 0.098655 0.045356 0.058390 0.085343 0.052748 0.036816 -0.026499 0.045459 0.121086 0.091543 -0.032550 -0.020198 -0.032026 0.057265 -0.098429 0.035469 -0.071871 -0.023785 0.055811 0.059055 0.026436 -0.027747 -0.048440 -0.065312 -0.081701 -0.055532 -0.091102 -0.075228 -0.003436 0.072790 -0.053765 0.070652 0.015381 -0.041604 0.041083 -0.100183 -0.103456 -0.058714 -0.008087 -0.026979 -0.024856 0.006126 -0.036905 0.031002 0.217505 0.010430 0.184305 0.048967 0.217299 0.222421 0.323136 0.283211 0.100861 0.213173 0.282354 0.066217 0.210030 0.120646 0.127092 0.279903 0.093588 -0.592740
0.072396 0.072899 0.074406 0.076917 0.080432 0.084950 0.090469 0.096989 0.104506 0.113018 0.122522 0.133014 0.144487 0.156936 0.170353 0.184728 0.200051 0.216310 0.233488 0.251568 0.270532 0.290355 0.311012 0.332473 0.354706 0.377672 0.401332 0.425639 0.450541 0.475985 0.501907 0.528242 0.554917 0.581853 0.608964 0.636159 0.663340 0.690402 0.717233 0.743714 0.769720 0.795119 0.819772 0.843533 0.866252 0.887772 0.907930 0.926561 0.943493 0.958553 0.971563 0.982347 0.990727 0.996524 0.999565 0.999677 0.996696 0.990461 0.980822 0.967640 0.950785 0.930146 0.905626 0.877148 0.844654 0.808112 0.767513 0.722878 0.674256 0.621729 0.565411 0.505454 0.442044 0.375409 0.305813 0.233561 0.159000 0.082515 0.004534 0.074480 0.154025 0.233561 0.312519 0.390299 0.466276 0.539804 0.610221 0.676856 0.739032 0.796080 0.847340 0.892170 0.929961 0.960138 0.982172 0.995594 0.999997 0.995052 0.980512 0.956225 0.922141 0.878318 0.824930 0.762273 0.690767 0.610960 0.523530 0.429282 0.329146 0.224171 0.115521 0.004458 0.107661 0.219406 0.329288 0.435776 0.537321 0.632381 0.719440 0.797039 0.863800 0.918456 0.959877 0.987096 0.999337 0.996041 0.976880 0.941787 0.890962 0.824888 0.744338 0.650371 0.544335 0.427848 0.302790 0.171271 0.035606 0.101725 0.238113 0.370875 0.497303 0.614720 0.720541 0.812333 0.887876 0.945224 0.982764 0.999265 0.993929 0.966428 0.916936 0.846148 0.755285 0.646094 0.520824 0.382192 0.233342 0.077771 0.080732 0.238185 0.390507 0.533620 0.663566 0.776619 0.869405 0.939003 0.983056 0.999862 0.988450 0.948641 0.881085 0.787280 0.669556 0.531042 0.375597 0.207721 0.032435 0.144859 0.318540 0.482946 0.632556 0.762191 0.867193 0.943618 0.988388 0.999445 0.975851 0.917878 0.827033 0.706052 0.558852 0.390417 0.206662 0.014232 0.179724 0.367807 0.542662 0.697256 0.825185 0.920948 0.980204 0.999996 0.978923 0.917248 0.816950 0.681701 0.516756 0.328790 0.125648 0.083969 0.290858 0.485721 0.659580 0.804206 0.912529 0.979004 0.999930 0.973682 0.900861 0.784337 0.629178 0.442476 0.233049 0.011060 0.212469 0.426182 0.618981 0.780601 0.902189 0.976810 0.999881 0.969495 0.886600 0.755038 0.581424 0.374852 0.146457 0.091144 0.324548 0.540311 0.725724 0.869591 0.962931 0.999584 0.976659 0.894807 0.758282 0.574787 0.355085 0.112420 0.138250 0.381164 0.600739 0.782581 0.914465 0.987192 0.995282 0.937444 0.816776 0.640679 0.420461 0.170678 0.091796 0.348880 0.582526 0.775999 0.915105 0.989281 0.992452 0.923597 0.786957 0.591849 0.352118 0.085205 0.189079 0.449998 0.677463 0.853604 0.964204 0.999926 0.957158 0.838452 0.652474 0.413458 0.140179 0.145453 0.420136 0.661054 0.847818 0.964224 0.999727 0.950481 0.819832 0.618195 0.362327 0.074007 0.221761 0.498894 0.732530 0.901294 0.989314 0.987793 0.895985 0.721452 0.479553 0.192179 0.114138 0.410648 0.669064 0.864293 0.976922 0.995246 0.916575 0.747710 0.504481 0.210360 0.105703 0.412095 0.677686 0.875020 0.983221 0.990294 0.894572 0.705108 0.440965 0.129398 0.196863 0.503015 0.755890 0.927608 0.998705 0.960484 0.816182 0.580873 0.280029 0.053137 0.381257 0.666983 0.877277 0.987288 0.983411 0.865109 0.645232 0.348794 0.010233 0.330495 0.632592 0.859335 0.982614 0.986526 0.869583 0.645176 0.340212 0.007975 0.356112 0.660313 0.881665 0.991265 0.974145 0.831469 0.580693 0.253597 0.107576
1.000000 1.000000 1.000000 1.000000 1.000000 1.000000 1.000000 1.000000 1.000000 1.000000 1.000000 1.000000 1.000000 1.000000 1.000000 1.000000 1.000000 1.000000 1.000000 1.000000 1.000000 1.000000 1.000000 1.000000 1.000000 1.000000 1.000000 1.000000 1.000000 1.000000 1.000000 1.000000 1.000000 1.000000 1.000000 1.000000 1.000000 1.000000 1.000000 1.000000 1.000000 1.000000 1.000000 1.000000 1.000000 1.000000 1.000000 1.000000 1.000000 1.000000 1.000000 1.000000 0.923943 0.923943 0.923943 0.914941 0.914941 0.914941 0.914941 0.914941 0.914941 0.914941 0.914941 0.914941 0.914941 0.914941 0.914941 0.914941 0.914941 0.914941 0.914941 0.914941 0.914941 0.914941 0.914941 0.914941 0.914941 0.914941 0.914941 0.914941 0.914941 0.914941 0.914941 0.914941 0.914941 0.914941 0.914941 0.914941 0.914941 0.914941 0.914941 0.914941 0.914941 0.914941 0.914941 0.914941 0.942917 0.944363 0.952424 0.952258 0.951695 0.949485 0.948466 0.947995 0.947873 0.948178 0.948857 0.949791 0.958592 0.959772 0.962596 0.963452 0.964164 0.964770 0.965378 0.965987 0.962442 0.961479 0.960912 0.956806 0.959624 0.958900 0.958867 0.959864 0.959724 0.961301 0.961608 0.960918 0.959890 0.958999 0.958141 0.957630 0.957435 0.958123 0.958478 0.959891 0.963170 0.962596 0.962348 0.962504 0.962599 0.962801 0.963324 0.965169 0.961209 0.961711 0.961539 0.959346 0.965871 0.962987 0.963528 0.964055 0.965516 0.965762 0.962865 0.959069 0.951926 0.950993 0.946936 0.938188 0.935617 0.936746 0.939105 0.939871 0.939352 0.933391 0.933893 0.928778 0.927993 0.931337 0.927575 0.925847 0.927191 0.925890 0.923077 0.922346 0.919426 0.914720 0.911254 0.911093 0.914518 0.916747 0.918179 0.917786 0.913273 0.906047 0.889318 0.887353 0.881059 0.884674 0.873918 0.873251 0.873359 0.869999 0.873235 0.875865 0.877129 0.872616 0.853724 0.831326 0.820950 0.825024 0.831023 0.828767 0.827005 0.820401 0.833731 0.817696 0.830939 0.842081 0.835186 0.836250 0.835428 0.831570 0.823530 0.822690 0.824731 0.824293 0.823506 0.823656 0.816891 0.807781 0.811735 0.765867 0.753171 0.748298 0.753517 0.758325 0.757060 0.756171 0.763374 0.768824 0.767250 0.753437 0.746030 0.734416 0.738933 0.744075 0.750250 0.744113 0.723240 0.706726 0.665176 0.681301 0.711055 0.661788 0.684108 0.694405 0.680879 0.680326 0.672182 0.664855 0.651193 0.654562 0.666150 0.684704 0.700896 0.725506 0.715343 0.704790 0.706548 0.689795 0.681207 0.674477 0.681483 0.662464 0.656788 0.678865 0.678323 0.667536 0.655041 0.638704 0.627939 0.631420 0.641338 0.634591 0.633625 0.614878 0.581646 0.582274 0.607213 0.622545 0.642023 0.617707 0.601013 0.595661 0.574278 0.591025 0.550138 0.550729 0.572422 0.577978 0.554122 0.530090 0.535967 0.555545 0.563905 0.558012 0.534282 0.522203 0.529818 0.566829 0.557831 0.523942 0.538041 0.535311 0.533364 0.478005 0.485026 0.454047 0.431531 0.376754 0.357070 0.355083 0.342975 0.334423 0.303138 0.300553 0.308565 0.319577 0.323661 0.320141 0.300254 0.313488 0.308498 0.296039 0.236728 0.224561 0.214887 0.203679 0.205287 0.180680 0.200531 0.259298 0.261073 0.261073 0.261073 0.261073 0.261073 0.261073 0.274353 0.274353 0.274353 0.274353 0.274353 0.274353 0.274353 0.274353 0.274353 0.282487 0.282487 0.282487 0.282487 0.282487 0.282487 0.282487 0.282487 0.282487 0.282487 0.282487 0.282487 0.282487 0.282487
0.000000 0.000000 0.000000 0.000000 0.000000 0.000000 0.000000 0.000000 0.000000 0.000000 0.000000 0.000000 0.000000 0.000000 0.000000 0.000000 0.000000 0.000000 0.000000 0.000000 0.000000 0.000000 0.000000 0.000000 0.000000 0.000000 0.000000 0.000000 0.000000 0.000000 0.000000 0.000000 0.000000 0.000000 0.000000 0.000000 0.000000 0.000000 0.000000 0.000000 0.000000 0.000000 0.000000 0.000000 0.000000 0.000000 0.000000 0.000000 0.000000 0.000000 0.000000 0.000000 0.180334 0.180334 0.180334 0.199007 0.199007 0.199007 0.199007 0.199007 0.199007 0.199007 0.199007 0.199007 0.199007 0.199007 0.199007 0.199007 0.199007 0.199007 0.199007 0.199007 0.199007 0.199007 0.199007 0.199007 0.199007 0.199007 0.199007 0.199007 0.199007 0.199007 0.199007 0.199007 0.199007 0.199007 0.199007 0.199007 0.199007 0.199007 0.199007 0.199007 0.199007 0.199007 0.199007 0.199007 0.225018 0.225018 0.225018 0.225018 0.225018 0.225018 0.225018 0.225018 0.225018 0.225018 0.225018 0.225018 0.225018 0.225018 0.225018 0.225018 0.225018 0.225018 0.225018 0.225018 0.225018 0.225018 0.225018 0.225018 0.225018 0.225018 0.225018 0.225018 0.225018 0.244339 0.244339 0.244339 0.244339 0.244339 0.244339 0.244339 0.244339 0.244339 0.244339 0.244339 0.244339 0.244339 0.244339 0.244339 0.244339 0.244339 0.244339 0.244339 0.244339 0.244339 0.244339 0.244339 0.251976 0.251976 0.251976 0.251976 0.251976 0.251976 0.251976 0.251976 0.251976 0.251976 0.251976 0.251976 0.251976 0.251976 0.251976 0.251976 0.251976 0.251976 0.251976 0.251976 0.264906 0.264906 0.264906 0.264906 0.264906 0.264906 0.264906 0.264906 0.264906 0.264906 0.264906 0.264906 0.264906 0.264906 0.264906 0.264906 0.264906 0.264906 0.264906 0.264906 0.264906 0.264906 0.264906 0.264906 0.264906 0.264906 0.264906 0.264906 0.264906 0.264906 0.264906 0.264906 0.264906 0.264906 0.264906 0.264906 0.264906 0.264906 0.264906 0.264906 0.264906 0.264906 0.264906 0.264906 0.264906 0.264906 0.264906 0.264906 0.264906 0.264906 0.264906 0.264906 0.264906 0.264906 0.264906 0.264906 0.264906 0.264906 0.264906 0.264906 0.264906 0.264906 0.256074 0.256074 0.256074 0.256074 0.256074 0.256074 0.256074 0.256074 0.256074 0.256074 0.256074 0.256074 0.256074 0.256074 0.269680 0.269680 0.269680 0.269680 0.269680 0.269680 0.269680 0.269680 0.269680 0.269680 0.269680 0.269680 0.264906 0.264906 0.264906 0.264906 0.264906 0.264906 0.264906 0.264906 0.264906 0.264906 0.264906 0.264906 0.269680 0.269680 0.269680 0.269680 0.269680 0.269680 0.269680 0.269680 0.269680 0.269680 0.269680 0.264906 0.264906 0.264906 0.264906 0.264906 0.264906 0.264906 0.264906 0.264906 0.264906 0.264906 0.256074 0.256074 0.256074 0.256074 0.256074 0.256074 0.256074 0.256074 0.256074 0.256074 0.256074 0.264906 0.264906 0.264906 0.264906 0.264906 0.264906 0.264906 0.264906 0.264906 0.264906 0.260378 0.260378 0.260378 0.260378 0.260378 0.260378 0.260378 0.260378 0.260378 0.260378 0.256074 0.256074 0.256074 0.256074 0.256074 0.256074 0.256074 0.256074 0.256074 0.256074 0.260378 0.260378 0.260378 0.260378 0.260378 0.260378 0.260378 0.260378 0.260378 0.256074 0.256074 0.256074 0.256074 0.256074 0.256074 0.256074 0.256074 0.256074 0.251976 0.251976 0.251976 0.251976 0.251976 0.251976 0.251976 0.251976 0.251976 0.251976 0.251976 0.251976 0.251976 0.251976
