# Output from CTFFind version 4.1.9, run on 2019-11-02 16:16:37
# Input file: stack16_bm3d_averaged_1_0.7_1.00_50_half.mrc ; Number of micrographs: 1
# Pixel size: 3.000 Angstroms ; acceleration voltage: 300.0 keV ; spherical aberration: 0.00 mm ; amplitude contrast: 0.07
# Box size: 512 pixels ; min. res.: 30.0 Angstroms ; max. res.: 5.0 Angstroms ; min. def.: 5000.0 um; max. def. 50000.0 um; num. frames averaged: 1
# 6 lines per micrograph: #1 - spatial frequency (1/Angstroms); #2 - 1D rotational average of spectrum (assuming no astigmatism); #3 - 1D rotational average of spectrum; #4 - CTF fit; #5 - cross-correlation between spectrum and CTF fit; #6 - 2sigma of expected cross correlation of noise
0.000000 0.000651 0.001302 0.001953 0.002604 0.003255 0.003906 0.004557 0.005208 0.005859 0.006510 0.007161 0.007812 0.008464 0.009115 0.009766 0.010417 0.011068 0.011719 0.012370 0.013021 0.013672 0.014323 0.014974 0.015625 0.016276 0.016927 0.017578 0.018229 0.018880 0.019531 0.020182 0.020833 0.021484 0.022135 0.022786 0.023438 0.024089 0.024740 0.025391 0.026042 0.026693 0.027344 0.027995 0.028646 0.029297 0.029948 0.030599 0.031250 0.031901 0.032552 0.033203 0.033854 0.034505 0.035156 0.035807 0.036458 0.037109 0.037760 0.038411 0.039062 0.039714 0.040365 0.041016 0.041667 0.042318 0.042969 0.043620 0.044271 0.044922 0.045573 0.046224 0.046875 0.047526 0.048177 0.048828 0.049479 0.050130 0.050781 0.051432 0.052083 0.052734 0.053385 0.054036 0.054688 0.055339 0.055990 0.056641 0.057292 0.057943 0.058594 0.059245 0.059896 0.060547 0.061198 0.061849 0.062500 0.063151 0.063802 0.064453 0.065104 0.065755 0.066406 0.067057 0.067708 0.068359 0.069010 0.069661 0.070312 0.070964 0.071615 0.072266 0.072917 0.073568 0.074219 0.074870 0.075521 0.076172 0.076823 0.077474 0.078125 0.078776 0.079427 0.080078 0.080729 0.081380 0.082031 0.082682 0.083333 0.083984 0.084635 0.085286 0.085938 0.086589 0.087240 0.087891 0.088542 0.089193 0.089844 0.090495 0.091146 0.091797 0.092448 0.093099 0.093750 0.094401 0.095052 0.095703 0.096354 0.097005 0.097656 0.098307 0.098958 0.099609 0.100260 0.100911 0.101562 0.102214 0.102865 0.103516 0.104167 0.104818 0.105469 0.106120 0.106771 0.107422 0.108073 0.108724 0.109375 0.110026 0.110677 0.111328 0.111979 0.112630 0.113281 0.113932 0.114583 0.115234 0.115885 0.116536 0.117188 0.117839 0.118490 0.119141 0.119792 0.120443 0.121094 0.121745 0.122396 0.123047 0.123698 0.124349 0.125000 0.125651 0.126302 0.126953 0.127604 0.128255 0.128906 0.129557 0.130208 0.130859 0.131510 0.132161 0.132812 0.133464 0.134115 0.134766 0.135417 0.136068 0.136719 0.137370 0.138021 0.138672 0.139323 0.139974 0.140625 0.141276 0.141927 0.142578 0.143229 0.143880 0.144531 0.145182 0.145833 0.146484 0.147135 0.147786 0.148438 0.149089 0.149740 0.150391 0.151042 0.151693 0.152344 0.152995 0.153646 0.154297 0.154948 0.155599 0.156250 0.156901 0.157552 0.158203 0.158854 0.159505 0.160156 0.160807 0.161458 0.162109 0.162760 0.163411 0.164062 0.164714 0.165365 0.166016 0.166667 0.167318 0.167969 0.168620 0.169271 0.169922 0.170573 0.171224 0.171875 0.172526 0.173177 0.173828 0.174479 0.175130 0.175781 0.176432 0.177083 0.177734 0.178385 0.179036 0.179688 0.180339 0.180990 0.181641 0.182292 0.182943 0.183594 0.184245 0.184896 0.185547 0.186198 0.186849 0.187500 0.188151 0.188802 0.189453 0.190104 0.190755 0.191406 0.192057 0.192708 0.193359 0.194010 0.194661 0.195312 0.195964 0.196615 0.197266 0.197917 0.198568 0.199219 0.199870 0.200521 0.201172 0.201823 0.202474 0.203125 0.203776 0.204427 0.205078 0.205729 0.206380 0.207031 0.207682 0.208333 0.208984 0.209635 0.210286 0.210938 0.211589 0.212240 0.212891 0.213542 0.214193 0.214844 0.215495 0.216146 0.216797 0.217448 0.218099 0.218750 0.219401 0.220052 0.220703 0.221354 0.222005 0.222656 0.223307 0.223958 0.224609 0.225260 0.225911 0.226562 0.227214 0.227865 0.228516 0.229167 0.229818 0.230469 0.231120 0.231771 0.232422 0.233073 0.233724 0.234375 0.235026 0.235677
       0.34052        0.34052        0.34052        0.34052        0.34052        0.34052        0.34052        0.34052        0.34052        0.34052        0.34052        0.34052        0.34052        0.34052        0.34052        0.34052        0.34052        0.34052        0.34052        0.34052        0.34052        0.34052        0.34052        0.34052        0.34052        0.34052        0.34052        0.34052        0.34052        0.34052        0.34052        0.34052        0.34052        0.34052        0.34052        0.34052        0.34052        0.34052        0.34052        0.34052        0.34052        0.34052        0.34052        0.34052        0.34052        0.34052        0.34052        0.34052        0.34052        0.34052        0.34052        0.48735        0.70128        0.45396       -0.11534       -0.41458       -0.57515       -0.66740       -0.74930       -0.76811       -0.87191       -0.91814       -0.76183       -0.92778       -0.87487       -1.02672       -1.10132       -0.99205       -0.96641       -0.88607       -0.86411       -0.75384       -0.64417       -0.50367       -0.42889       -0.22195       -0.11831       -0.02209        0.20292        0.24287        0.30612        0.38063        0.43641        0.51479        0.57719        0.59282        0.58889        0.49892        0.54164        0.48480        0.38891        0.31683        0.20244        0.16849        0.10095       -0.06249       -0.11020       -0.09547        0.00767       -0.01699        0.01311        0.02526        0.20762        0.21799        0.39099        0.45432        0.55804        0.69272        0.75587        0.72791        0.70138        0.69768        0.57969        0.53704        0.39819        0.26878        0.18894        0.14263        0.06594        0.02223        0.02035        0.06207        0.07294        0.26687        0.41524        0.50606        0.58747        0.63693        0.70156        0.65819        0.64895        0.66766        0.60712        0.47802        0.28264        0.23468        0.20674        0.12768        0.04119        0.08805        0.12257        0.24780        0.33638        0.41422        0.49933        0.53516        0.66085        0.60751        0.55520        0.51188        0.36365        0.21059        0.21275        0.15024        0.11258        0.12165        0.21534        0.24902        0.35346        0.43942        0.43793        0.55947        0.50652        0.44569        0.45216        0.37993        0.32183        0.27365        0.21511        0.23468        0.20651        0.20444        0.31897        0.44824        0.48129        0.47819        0.54942        0.49313        0.45393        0.39097        0.29344        0.22311        0.22981        0.24091        0.26327        0.27711        0.32197        0.44051        0.49776        0.48396        0.45773        0.41272        0.38510        0.36040        0.24774        0.22154        0.24228        0.29228        0.35348        0.35843        0.38712        0.41128        0.44140        0.36928        0.34644        0.31128        0.30220        0.26728        0.25684        0.30315        0.34342        0.41231        0.41249        0.39368        0.39315        0.40347        0.34817        0.28819        0.29104        0.27867        0.30549        0.35729        0.36742        0.41657        0.35554        0.36642        0.38761        0.34580        0.31760        0.27840        0.29471        0.33744        0.32610        0.32190        0.37031        0.38758        0.32874        0.35051        0.29696        0.30565        0.28431        0.28194        0.29767        0.32994        0.38330        0.36255        0.34395        0.32366        0.28226        0.27438        0.29415        0.28101        0.31053        0.36438        0.39241        0.33584        0.31769        0.30769        0.29588        0.27946        0.28093        0.29812        0.33696        0.33893        0.33728        0.31075        0.34399        0.32015        0.28743        0.31548        0.31916        0.32950        0.34071        0.31785        0.31409        0.30522        0.32373        0.30742        0.33235        0.38251        0.32668        0.36014        0.31883        0.31177        0.29163        0.30945        0.28886        0.30494        0.31203        0.34563        0.35568        0.31461        0.31995        0.31461        0.29025        0.28769        0.29008        0.32645        0.34527        0.35361        0.32911        0.32047        0.25699        0.25814        0.31543        0.34206        0.32417        0.30183        0.28191        0.28455        0.32087        0.30828        0.31152        0.33476        0.34158        0.30305        0.23743        0.29038        0.27832        0.28388        0.32081        0.31784        0.33914        0.33845        0.27785        0.26668        0.29273        0.27452        0.29052        0.27545        0.25055        0.26328        0.24392        0.28126        0.27989        0.27475        0.25883        0.31866        0.32261        0.31283        0.27809        0.29820        0.24474        0.26482        0.25397        0.33842        0.34687        0.23006        0.24726        0.26075        0.23540        0.24173        0.29221        0.21877        0.14581        0.17561        0.24810        0.27260        0.22613        0.12156        0.04332       -0.43081       -0.76593
3.157550 3.117908 3.078523 3.039394 3.000521 2.961904 2.923543 2.885438 2.847589 2.809996 2.772660 2.735579 2.698754 2.662185 2.625873 2.589816 2.554015 2.518471 2.483182 2.448149 2.413373 2.378852 2.344588 2.310579 2.276827 2.243331 2.210090 2.177106 2.144378 2.111906 2.079689 2.047729 2.016025 1.984577 1.953385 1.922449 1.891769 1.861345 1.831177 1.801265 1.771609 1.742209 1.713065 1.684177 1.655546 1.627170 1.599050 1.571186 1.543579 1.516227 1.489132 1.547036 1.736083 1.646593 0.989846 0.706956 0.496638 0.446476 0.338818 0.277294 0.214413 0.032264 0.211328 0.092258 0.002364 -0.048017 -0.193649 -0.146349 -0.086342 -0.085560 -0.092879 0.015828 0.034774 0.241286 0.152481 0.368978 0.453614 0.487063 0.724623 0.708450 0.714499 0.844471 0.827450 0.862184 0.927060 0.898013 0.944784 0.754417 0.838823 0.844303 0.623327 0.603466 0.453689 0.432272 0.383264 0.206182 0.118316 0.092444 0.199755 0.140717 0.191166 0.102997 0.297294 0.290019 0.453269 0.408694 0.576188 0.634677 0.755581 0.689500 0.655684 0.658538 0.522110 0.495686 0.358304 0.282341 0.104410 0.131413 -0.007401 -0.026142 -0.052903 -0.039426 -0.017046 0.016245 0.263680 0.321398 0.375561 0.389711 0.456592 0.483338 0.439811 0.484174 0.379946 0.369325 0.129852 0.048131 0.052688 -0.025890 -0.151066 -0.069145 -0.132901 -0.004800 0.111465 0.136010 0.235182 0.235039 0.361814 0.444752 0.331083 0.370812 0.260182 0.102832 0.028780 0.026275 -0.012183 -0.020407 -0.014793 0.084456 0.102591 0.238924 0.216413 0.286776 0.343519 0.225079 0.226978 0.203449 0.117352 0.067017 0.034949 0.015122 0.025195 -0.031757 0.011398 0.174341 0.213242 0.234051 0.274194 0.226082 0.256094 0.151878 0.114884 -0.012550 -0.012586 0.005663 0.022872 0.020735 0.040004 0.113804 0.203068 0.215724 0.212222 0.137172 0.144306 0.079815 0.057933 -0.061426 -0.018883 -0.006955 0.056621 0.066020 0.073329 0.151807 0.086939 0.172103 0.071597 0.048541 0.047534 0.030317 0.004216 0.006408 0.051651 0.084339 0.131703 0.131647 0.075639 0.136413 0.101038 0.019620 0.010473 0.009401 -0.003394 0.056997 0.062921 0.103726 0.097338 0.079817 0.067423 0.082525 0.037699 0.018809 -0.016117 0.014160 0.056385 0.025979 0.037690 0.090512 0.079938 0.056444 0.034041 0.013099 0.016459 -0.006775 -0.006997 0.013684 0.062501 0.098639 0.064438 0.056845 0.041128 -0.013842 -0.000727 0.015691 0.015290 0.028077 0.091496 0.123303 0.040936 0.045847 0.002789 0.028272 -0.011879 0.004099 0.022070 0.064093 0.046571 0.041242 0.027193 0.055935 0.028060 -0.001939 0.034191 0.041315 0.038380 0.047917 0.021810 0.009493 -0.009024 0.028871 0.004191 0.046239 0.072264 0.040804 0.032112 0.006605 0.002486 -0.005137 0.009205 0.001489 0.008596 -0.007742 0.065329 0.049942 0.039854 0.042781 0.002351 0.009635 0.004746 -0.005851 0.055838 0.061079 0.083118 0.041384 0.046933 -0.028837 0.004529 0.041366 0.075155 0.037419 0.023640 0.005029 0.000754 0.047580 0.049615 0.039913 0.081596 0.060183 0.049571 -0.024165 0.024845 0.039033 0.025696 0.045281 0.071834 0.082922 0.068168 0.017238 0.006756 0.020891 0.007760 0.015125 -0.008953 -0.019134 -0.009811 -0.055336 0.009438 -0.005152 0.007242 -0.058688 -0.002110 0.015195 0.003240 -0.039244 0.025583 -0.050936 -0.052546 -0.040717 0.045520 0.072994 -0.104047 -0.027652 0.030373 0.007357 -0.046475 0.042547 0.020235 0.002149 -0.031852 0.073809 0.237617 0.205762 0.066726 0.041929 -0.678287
0.072396 0.073045 0.074993 0.078239 0.082781 0.088619 0.095750 0.104172 0.113879 0.124868 0.137131 0.150661 0.165446 0.181476 0.198733 0.217200 0.236855 0.257672 0.279621 0.302665 0.326765 0.351874 0.377937 0.404895 0.432680 0.461216 0.490417 0.520190 0.550432 0.581028 0.611855 0.642776 0.673648 0.704310 0.734596 0.764325 0.793305 0.821334 0.848198 0.873674 0.897531 0.919526 0.939411 0.956933 0.971833 0.983850 0.992722 0.998190 0.999999 0.997899 0.991654 0.981040 0.965848 0.945894 0.921014 0.891076 0.855981 0.815664 0.770105 0.719327 0.663404 0.602462 0.536684 0.466316 0.391663 0.313098 0.231059 0.146052 0.058651 0.030504 0.120709 0.211200 0.301154 0.389699 0.475919 0.558863 0.637557 0.711010 0.778232 0.838247 0.890106 0.932905 0.965801 0.988034 0.998936 0.997959 0.984687 0.958855 0.920362 0.869293 0.805923 0.730732 0.644410 0.547863 0.442210 0.328782 0.209108 0.084908 0.041931 0.169380 0.295290 0.417434 0.533542 0.641343 0.738616 0.823234 0.893219 0.946795 0.982437 0.998923 0.995380 0.971327 0.926712 0.861938 0.777885 0.675912 0.557864 0.426044 0.283190 0.132431 0.022778 0.178717 0.331495 0.477137 0.611696 0.731360 0.832568 0.912127 0.967325 0.996041 0.996833 0.969029 0.912781 0.829110 0.719918 0.587974 0.436872 0.270952 0.095199 0.084894 0.263491 0.434591 0.592236 0.730722 0.844821 0.929989 0.982574 0.999993 0.980881 0.925205 0.834328 0.711020 0.559415 0.384909 0.193999 0.005936 0.206907 0.400617 0.578811 0.733633 0.857987 0.945889 0.992787 0.995825 0.954057 0.868566 0.742506 0.581039 0.391171 0.181489 0.038195 0.257285 0.464901 0.650417 0.804033 0.917307 0.983662 0.998809 0.961076 0.871594 0.734356 0.556103 0.346050 0.115467 0.122897 0.355496 0.568749 0.749843 0.887535 0.972890 0.999911 0.966025 0.872370 0.723857 0.528999 0.299494 0.049583 0.204800 0.447013 0.660805 0.831420 0.946667 0.997843 0.980466 0.894736 0.745685 0.542979 0.300386 0.034905 0.234374 0.487621 0.705731 0.871792 0.972456 0.999086 0.948590 0.823837 0.633636 0.392215 0.118253 0.166501 0.438917 0.676358 0.858594 0.969588 0.998985 0.943191 0.805892 0.597961 0.336716 0.044580 0.252766 0.528621 0.757656 0.918295 0.994833 0.979073 0.871332 0.680658 0.424229 0.125924 0.185807 0.480610 0.729170 0.906184 0.993015 0.979787 0.866639 0.664001 0.391799 0.077637 0.245912 0.544621 0.786251 0.944082 0.999989 0.946665 0.788726 0.542530 0.234644 0.100867 0.426155 0.703801 0.901202 0.994476 0.971517 0.833738 0.596261 0.286454 0.059055 0.398613 0.690531 0.898237 0.994981 0.967438 0.817744 0.563613 0.236461 0.122303 0.466423 0.750739 0.937166 0.999948 0.929403 0.733629 0.437847 0.081363 0.287483 0.617806 0.863216 0.988435 0.974565 0.822168 0.551655 0.200808 0.180295 0.536307 0.814652 0.973370 0.987641 0.853901 0.590885 0.237288 0.153698 0.522258 0.811074 0.974341 0.985232 0.840568 0.561859 0.192427 0.209115 0.577996 0.853766 0.990298 0.963745 0.777002 0.459801 0.064313 0.343237 0.693529 0.926011 0.999503 0.899813 0.642775 0.272109 0.147710 0.542479 0.841375 0.989760 0.959435 0.754339 0.410503 0.009947 0.429733 0.770576 0.967865 0.983128 0.811889 0.485226 0.064515 0.369813 0.733510 0.954935 0.989373 0.828436 0.502454 0.075191 0.368339 0.738608 0.959742 0.985300 0.808403 0.463951 0.022151 0.425426 0.784774 0.979209 0.966073 0.746484 0.365956 0.094604 0.535801
1.000000 1.000000 1.000000 1.000000 1.000000 1.000000 1.000000 1.000000 1.000000 1.000000 1.000000 1.000000 1.000000 1.000000 1.000000 1.000000 1.000000 1.000000 1.000000 1.000000 1.000000 1.000000 1.000000 1.000000 1.000000 1.000000 1.000000 1.000000 1.000000 1.000000 1.000000 1.000000 1.000000 1.000000 1.000000 1.000000 1.000000 1.000000 1.000000 1.000000 1.000000 1.000000 1.000000 1.000000 1.000000 1.000000 1.000000 1.000000 1.000000 1.000000 1.000000 1.000000 0.943408 0.943408 0.943408 0.943408 0.943408 0.943408 0.943408 0.943408 0.943408 0.943408 0.943408 0.943408 0.943408 0.943408 0.943408 0.943408 0.943408 0.943408 0.943408 0.943408 0.943408 0.943408 0.943408 0.943408 0.943408 0.943408 0.943408 0.943408 0.943408 0.943408 0.943408 0.943408 0.943408 0.924635 0.926071 0.929018 0.930085 0.930049 0.929594 0.929267 0.929459 0.931146 0.933436 0.950129 0.952232 0.952882 0.954200 0.954661 0.957655 0.956574 0.959435 0.968446 0.967454 0.967691 0.968110 0.969621 0.969991 0.969962 0.968744 0.969050 0.968675 0.967857 0.967014 0.966705 0.966407 0.968022 0.968341 0.968246 0.968665 0.968417 0.968072 0.967820 0.967885 0.969132 0.970756 0.970568 0.976941 0.977371 0.984908 0.984731 0.983123 0.983030 0.983093 0.983190 0.974735 0.969093 0.964425 0.953569 0.944590 0.941873 0.943819 0.944215 0.942911 0.938292 0.937514 0.935770 0.931694 0.931003 0.929396 0.930841 0.925661 0.921402 0.903262 0.901021 0.903272 0.903101 0.901305 0.893735 0.888983 0.889577 0.892393 0.895407 0.892653 0.895116 0.891770 0.893095 0.893947 0.895798 0.898692 0.895667 0.894120 0.889690 0.886515 0.881389 0.882786 0.868758 0.872136 0.859934 0.846901 0.838701 0.841963 0.852333 0.861412 0.869660 0.868462 0.868737 0.869163 0.862492 0.863769 0.855092 0.855646 0.860371 0.866633 0.862778 0.860591 0.866012 0.863799 0.867194 0.870292 0.866500 0.864254 0.855730 0.856314 0.856523 0.874233 0.872748 0.860484 0.853539 0.844011 0.850621 0.855558 0.854042 0.854652 0.849631 0.852126 0.842832 0.828348 0.830778 0.835918 0.833339 0.834549 0.833451 0.837559 0.838464 0.838193 0.834566 0.833905 0.848750 0.831592 0.837950 0.842520 0.840213 0.843866 0.838600 0.832099 0.825806 0.822630 0.822781 0.831072 0.826709 0.798202 0.792155 0.799781 0.779982 0.779829 0.762307 0.747558 0.732127 0.721443 0.702456 0.699726 0.681236 0.673745 0.681809 0.663566 0.670015 0.663723 0.659333 0.666866 0.643546 0.637942 0.633370 0.596030 0.616599 0.614427 0.607375 0.601940 0.608103 0.616502 0.581285 0.577359 0.581652 0.559691 0.557039 0.556439 0.550895 0.527249 0.537384 0.520647 0.534904 0.569869 0.537973 0.519199 0.527382 0.545348 0.554782 0.553378 0.535294 0.514724 0.522542 0.501170 0.492912 0.507121 0.512037 0.496593 0.517329 0.513428 0.548133 0.543864 0.521544 0.544859 0.562545 0.568063 0.562102 0.573927 0.549889 0.554011 0.540204 0.482079 0.498797 0.480687 0.429606 0.439040 0.453134 0.445938 0.440505 0.425723 0.416144 0.393012 0.359719 0.365084 0.356470 0.324502 0.291564 0.293345 0.296290 0.263323 0.233031 0.253577 0.200763 0.189968 0.205627 0.216745 0.210110 0.211656 0.235117 0.235117 0.235117 0.235117 0.235117 0.235117 0.235117 0.235117 0.235117 0.235117 0.235117 0.235117 0.235117 0.235117 0.262430 0.262430 0.262430 0.262430 0.262430 0.262430 0.262430 0.262430 0.262430 0.262430 0.262430 0.262430
0.000000 0.000000 0.000000 0.000000 0.000000 0.000000 0.000000 0.000000 0.000000 0.000000 0.000000 0.000000 0.000000 0.000000 0.000000 0.000000 0.000000 0.000000 0.000000 0.000000 0.000000 0.000000 0.000000 0.000000 0.000000 7.000000 4.000000 0.000000 0.000000 0.000000 0.000000 0.000000 0.000000 0.000000 0.000000 0.000000 0.000000 0.000000 0.000000 0.000000 0.000000 0.000000 0.000000 0.000000 0.000000 0.000000 0.000000 0.000000 0.000000 0.000000 0.000000 0.000000 0.209657 0.209657 0.209657 0.209657 0.209657 0.209657 0.209657 0.209657 0.209657 0.209657 0.209657 0.209657 0.209657 0.209657 0.209657 0.209657 0.209657 0.209657 0.209657 0.209657 0.209657 0.209657 0.209657 0.209657 0.209657 0.209657 0.209657 0.209657 0.209657 0.209657 0.209657 0.209657 0.209657 0.244339 0.244339 0.244339 0.244339 0.244339 0.244339 0.244339 0.244339 0.244339 0.244339 0.244339 0.244339 0.244339 0.244339 0.244339 0.244339 0.244339 0.244339 0.244339 0.244339 0.244339 0.244339 0.244339 0.244339 0.244339 0.260378 0.260378 0.260378 0.260378 0.260378 0.260378 0.260378 0.260378 0.260378 0.260378 0.260378 0.260378 0.260378 0.260378 0.260378 0.260378 0.260378 0.260378 0.260378 0.260378 0.269680 0.269680 0.269680 0.269680 0.269680 0.269680 0.269680 0.269680 0.269680 0.269680 0.269680 0.269680 0.269680 0.269680 0.269680 0.269680 0.269680 0.269680 0.269680 0.269680 0.269680 0.269680 0.269680 0.269680 0.269680 0.269680 0.269680 0.269680 0.269680 0.269680 0.269680 0.269680 0.269680 0.280056 0.280056 0.280056 0.280056 0.280056 0.280056 0.280056 0.280056 0.280056 0.280056 0.280056 0.280056 0.280056 0.280056 0.280056 0.280056 0.280056 0.280056 0.280056 0.280056 0.280056 0.280056 0.280056 0.280056 0.280056 0.280056 0.280056 0.274721 0.274721 0.274721 0.274721 0.274721 0.274721 0.274721 0.274721 0.274721 0.274721 0.274721 0.274721 0.274721 0.285714 0.285714 0.285714 0.285714 0.285714 0.285714 0.285714 0.285714 0.285714 0.285714 0.285714 0.280056 0.280056 0.280056 0.280056 0.280056 0.280056 0.280056 0.280056 0.280056 0.280056 0.280056 0.274721 0.274721 0.274721 0.274721 0.274721 0.274721 0.274721 0.274721 0.274721 0.274721 0.274721 0.280056 0.280056 0.280056 0.280056 0.280056 0.280056 0.280056 0.280056 0.280056 0.280056 0.274721 0.274721 0.274721 0.274721 0.274721 0.274721 0.274721 0.274721 0.274721 0.274721 0.280056 0.280056 0.280056 0.280056 0.280056 0.280056 0.280056 0.280056 0.280056 0.274721 0.274721 0.274721 0.274721 0.274721 0.274721 0.274721 0.274721 0.274721 0.285714 0.285714 0.285714 0.285714 0.285714 0.285714 0.285714 0.285714 0.264906 0.264906 0.264906 0.264906 0.264906 0.264906 0.264906 0.264906 0.264906 0.274721 0.274721 0.274721 0.274721 0.274721 0.274721 0.274721 0.274721 0.269680 0.269680 0.269680 0.269680 0.269680 0.269680 0.269680 0.269680 0.269680 0.269680 0.269680 0.269680 0.269680 0.269680 0.269680 0.269680 0.280056 0.280056 0.280056 0.280056 0.280056 0.280056 0.280056 0.260378 0.260378 0.260378 0.260378 0.260378 0.260378 0.260378 0.260378 0.269680 0.269680 0.269680 0.269680 0.269680 0.269680 0.269680 0.264906 0.264906 0.264906 0.264906 0.264906 0.264906 0.264906 0.264906 0.264906 0.264906 0.264906 0.264906 0.264906 0.264906 0.260378 0.260378 0.260378 0.260378 0.260378 0.260378 0.260378 0.260378 0.260378 0.260378 0.260378 0.260378
