# Output from CTFFind version 4.1.9, run on 2019-11-03 19:02:25
# Input file: stack16_bm3d_averaged_1_2.75_0_1000_half.mrc ; Number of micrographs: 1
# Pixel size: 3.000 Angstroms ; acceleration voltage: 300.0 keV ; spherical aberration: 0.00 mm ; amplitude contrast: 0.07
# Box size: 512 pixels ; min. res.: 30.0 Angstroms ; max. res.: 5.0 Angstroms ; min. def.: 5000.0 um; max. def. 50000.0 um; num. frames averaged: 1
# 6 lines per micrograph: #1 - spatial frequency (1/Angstroms); #2 - 1D rotational average of spectrum (assuming no astigmatism); #3 - 1D rotational average of spectrum; #4 - CTF fit; #5 - cross-correlation between spectrum and CTF fit; #6 - 2sigma of expected cross correlation of noise
0.000000 0.000651 0.001302 0.001953 0.002604 0.003255 0.003906 0.004557 0.005208 0.005859 0.006510 0.007161 0.007812 0.008464 0.009115 0.009766 0.010417 0.011068 0.011719 0.012370 0.013021 0.013672 0.014323 0.014974 0.015625 0.016276 0.016927 0.017578 0.018229 0.018880 0.019531 0.020182 0.020833 0.021484 0.022135 0.022786 0.023438 0.024089 0.024740 0.025391 0.026042 0.026693 0.027344 0.027995 0.028646 0.029297 0.029948 0.030599 0.031250 0.031901 0.032552 0.033203 0.033854 0.034505 0.035156 0.035807 0.036458 0.037109 0.037760 0.038411 0.039062 0.039714 0.040365 0.041016 0.041667 0.042318 0.042969 0.043620 0.044271 0.044922 0.045573 0.046224 0.046875 0.047526 0.048177 0.048828 0.049479 0.050130 0.050781 0.051432 0.052083 0.052734 0.053385 0.054036 0.054688 0.055339 0.055990 0.056641 0.057292 0.057943 0.058594 0.059245 0.059896 0.060547 0.061198 0.061849 0.062500 0.063151 0.063802 0.064453 0.065104 0.065755 0.066406 0.067057 0.067708 0.068359 0.069010 0.069661 0.070312 0.070964 0.071615 0.072266 0.072917 0.073568 0.074219 0.074870 0.075521 0.076172 0.076823 0.077474 0.078125 0.078776 0.079427 0.080078 0.080729 0.081380 0.082031 0.082682 0.083333 0.083984 0.084635 0.085286 0.085938 0.086589 0.087240 0.087891 0.088542 0.089193 0.089844 0.090495 0.091146 0.091797 0.092448 0.093099 0.093750 0.094401 0.095052 0.095703 0.096354 0.097005 0.097656 0.098307 0.098958 0.099609 0.100260 0.100911 0.101562 0.102214 0.102865 0.103516 0.104167 0.104818 0.105469 0.106120 0.106771 0.107422 0.108073 0.108724 0.109375 0.110026 0.110677 0.111328 0.111979 0.112630 0.113281 0.113932 0.114583 0.115234 0.115885 0.116536 0.117188 0.117839 0.118490 0.119141 0.119792 0.120443 0.121094 0.121745 0.122396 0.123047 0.123698 0.124349 0.125000 0.125651 0.126302 0.126953 0.127604 0.128255 0.128906 0.129557 0.130208 0.130859 0.131510 0.132161 0.132812 0.133464 0.134115 0.134766 0.135417 0.136068 0.136719 0.137370 0.138021 0.138672 0.139323 0.139974 0.140625 0.141276 0.141927 0.142578 0.143229 0.143880 0.144531 0.145182 0.145833 0.146484 0.147135 0.147786 0.148438 0.149089 0.149740 0.150391 0.151042 0.151693 0.152344 0.152995 0.153646 0.154297 0.154948 0.155599 0.156250 0.156901 0.157552 0.158203 0.158854 0.159505 0.160156 0.160807 0.161458 0.162109 0.162760 0.163411 0.164062 0.164714 0.165365 0.166016 0.166667 0.167318 0.167969 0.168620 0.169271 0.169922 0.170573 0.171224 0.171875 0.172526 0.173177 0.173828 0.174479 0.175130 0.175781 0.176432 0.177083 0.177734 0.178385 0.179036 0.179688 0.180339 0.180990 0.181641 0.182292 0.182943 0.183594 0.184245 0.184896 0.185547 0.186198 0.186849 0.187500 0.188151 0.188802 0.189453 0.190104 0.190755 0.191406 0.192057 0.192708 0.193359 0.194010 0.194661 0.195312 0.195964 0.196615 0.197266 0.197917 0.198568 0.199219 0.199870 0.200521 0.201172 0.201823 0.202474 0.203125 0.203776 0.204427 0.205078 0.205729 0.206380 0.207031 0.207682 0.208333 0.208984 0.209635 0.210286 0.210938 0.211589 0.212240 0.212891 0.213542 0.214193 0.214844 0.215495 0.216146 0.216797 0.217448 0.218099 0.218750 0.219401 0.220052 0.220703 0.221354 0.222005 0.222656 0.223307 0.223958 0.224609 0.225260 0.225911 0.226562 0.227214 0.227865 0.228516 0.229167 0.229818 0.230469 0.231120 0.231771 0.232422 0.233073 0.233724 0.234375 0.235026 0.235677
       0.33726        0.33726        0.33726        0.33726        0.33726        0.33726        0.33726        0.33726        0.33726        0.33726        0.33726        0.33726        0.33726        0.33726        0.33726        0.33726        0.33726        0.33726        0.33726        0.33726        0.33726        0.33726        0.33726        0.33726        0.33726        0.33726        0.33726        0.33726        0.33726        0.33726        0.33726        0.33726        0.33726        0.33726        0.33726        0.33726        0.33726        0.33726        0.33726        0.33726        0.33726        0.33726        0.33726        0.33726        0.33726        0.33726        0.33726        0.33726        0.33726        0.33726        0.33726        0.45727        0.63689        0.42245       -0.13137       -0.42925       -0.57224       -0.66271       -0.73418       -0.75514       -0.89042       -0.92701       -0.74721       -0.93084       -0.87757       -1.02143       -1.08510       -0.97097       -0.93510       -0.85606       -0.80227       -0.71033       -0.61804       -0.50268       -0.42620       -0.23097       -0.10779       -0.02162        0.18878        0.22220        0.30118        0.36850        0.40371        0.48759        0.56586        0.59253        0.56784        0.49391        0.54713        0.49091        0.40851        0.32758        0.18905        0.17371        0.10330       -0.04703       -0.10033       -0.07214        0.02871       -0.01151        0.02348        0.02542        0.17296        0.20153        0.38782        0.45992        0.56659        0.69407        0.77072        0.72570        0.67600        0.64189        0.56867        0.48155        0.36835        0.28294        0.18959        0.18064        0.08822        0.02538        0.00309        0.02884        0.07930        0.27002        0.38457        0.49252        0.55163        0.60086        0.68656        0.64562        0.64843        0.64115        0.58649        0.48372        0.28471        0.25404        0.21253        0.11523        0.05318        0.10296        0.12990        0.26045        0.33602        0.41364        0.47964        0.55075        0.64995        0.58953        0.52780        0.50504        0.38178        0.21402        0.23221        0.16760        0.13664        0.15311        0.23228        0.25399        0.34745        0.43059        0.43153        0.52271        0.49573        0.45582        0.44829        0.36052        0.31395        0.25794        0.21902        0.21745        0.20131        0.21430        0.30434        0.41118        0.45163        0.47824        0.54619        0.47415        0.43695        0.38250        0.31514        0.22978        0.23845        0.24303        0.26509        0.29244        0.32313        0.42748        0.50599        0.48281        0.45337        0.37613        0.37060        0.36211        0.21823        0.23350        0.25607        0.28620        0.34516        0.35890        0.40369        0.43740        0.43831        0.38179        0.34837        0.31667        0.32280        0.27384        0.24707        0.27044        0.32533        0.40070        0.40992        0.39755        0.39052        0.40659        0.35276        0.27971        0.27989        0.29047        0.31908        0.37203        0.36415        0.40681        0.34518        0.37460        0.37937        0.34518        0.30966        0.26871        0.28064        0.32605        0.32468        0.32865        0.33931        0.37336        0.32983        0.35190        0.28861        0.30374        0.25872        0.27863        0.30106        0.33032        0.38632        0.36341        0.34708        0.31041        0.27082        0.26248        0.29844        0.28816        0.32191        0.35291        0.37642        0.33860        0.31574        0.30009        0.29545        0.29546        0.28912        0.30958        0.33645        0.33670        0.32128        0.28794        0.33575        0.31849        0.28914        0.31303        0.32718        0.33812        0.34984        0.30556        0.31539        0.28165        0.28653        0.29695        0.31819        0.39212        0.32250        0.36626        0.29913        0.30656        0.30705        0.30814        0.30560        0.29732        0.29918        0.33228        0.34065        0.29253        0.30830        0.29451        0.28666        0.30468        0.31435        0.32368        0.35463        0.35943        0.30534        0.29984        0.28916        0.24046        0.31654        0.33975        0.29587        0.29225        0.26683        0.29304        0.31742        0.32188        0.29038        0.30528        0.32441        0.31587        0.23665        0.29235        0.29855        0.28023        0.32641        0.28360        0.35250        0.38361        0.27626        0.28105        0.26139        0.26834        0.29447        0.27859        0.26112        0.24289        0.25730        0.30817        0.28970        0.27008        0.25497        0.34835        0.30699        0.26853        0.22624        0.20984        0.26935        0.22843        0.21789        0.28931        0.36205        0.24172        0.24588        0.26958        0.22650        0.22661        0.30049        0.27952        0.23340        0.18565        0.27511        0.32666        0.25226        0.09670        0.06596       -0.43031       -0.68016
2.971280 2.934303 2.897563 2.861062 2.824799 2.788773 2.752986 2.717436 2.682125 2.647051 2.612215 2.577617 2.543257 2.509135 2.475251 2.441605 2.408197 2.375026 2.342094 2.309400 2.276943 2.244725 2.212744 2.181001 2.149496 2.118230 2.087201 2.056410 2.025857 1.995542 1.965464 1.935625 1.906024 1.876660 1.847535 1.818647 1.789998 1.761586 1.733412 1.705476 1.677779 1.650319 1.623096 1.596112 1.569366 1.542858 1.516588 1.490555 1.464761 1.439204 1.413886 1.465467 1.599854 1.548409 0.913252 0.624819 0.439914 0.382403 0.299239 0.228345 0.151044 -0.034761 0.179161 0.039668 -0.056286 -0.091373 -0.234163 -0.170493 -0.097032 -0.095624 -0.088010 0.012452 0.030105 0.201543 0.124823 0.329299 0.430721 0.457269 0.675460 0.672526 0.673433 0.810535 0.781297 0.799342 0.920432 0.857634 0.909289 0.726378 0.824723 0.828421 0.632367 0.585213 0.447912 0.415939 0.363927 0.198214 0.128212 0.098720 0.218202 0.135005 0.201158 0.095074 0.277764 0.263193 0.437495 0.406138 0.595706 0.625694 0.749211 0.734735 0.632118 0.617749 0.499343 0.466967 0.305909 0.299308 0.122139 0.166507 0.020049 -0.014286 -0.045299 -0.070470 -0.022794 0.041353 0.251249 0.312440 0.379145 0.341201 0.471334 0.487608 0.480983 0.478158 0.374063 0.393103 0.144781 0.098678 0.077273 -0.011904 -0.129694 -0.032183 -0.092458 0.022657 0.124606 0.161956 0.251914 0.251780 0.370961 0.478111 0.344108 0.382707 0.302733 0.139089 0.068929 0.070338 0.034109 0.024868 0.053722 0.115586 0.125933 0.257016 0.241310 0.292735 0.343802 0.249981 0.251053 0.209491 0.117321 0.072771 0.035777 0.030440 0.016647 -0.005796 0.031212 0.161397 0.188910 0.220553 0.297443 0.218525 0.224921 0.128652 0.115008 0.002139 -0.017975 0.000054 0.001241 0.037362 0.022761 0.100387 0.194435 0.200424 0.206759 0.132396 0.103292 0.095071 0.043649 -0.073263 -0.005260 0.012993 0.040317 0.050470 0.099230 0.158839 0.136967 0.158351 0.069447 0.064671 0.048115 0.052353 -0.002539 -0.008951 0.015750 0.078329 0.121273 0.144211 0.079243 0.140702 0.117543 0.025668 0.009464 0.011246 0.020640 0.073649 0.086919 0.102432 0.109901 0.067762 0.107203 0.083208 0.060268 0.031534 -0.021009 0.027287 0.068699 0.040356 0.054876 0.052044 0.072980 0.082755 0.032998 0.017228 0.016788 -0.036849 0.008181 0.021316 0.045123 0.109022 0.069274 0.050354 0.008629 -0.030407 -0.015375 0.017398 0.009344 0.030700 0.069573 0.068248 0.006018 0.038386 -0.025362 0.017009 -0.012394 -0.020383 0.026366 0.053809 0.014611 0.009995 -0.010160 0.035262 -0.003000 -0.008155 0.015054 0.029300 0.025615 0.074371 0.002124 -0.007527 -0.036878 -0.005052 -0.000469 0.026440 0.086305 0.016084 0.046609 -0.015806 0.029748 -0.013741 0.020963 0.011083 0.004548 -0.010660 0.045490 0.022560 0.014052 0.021012 -0.024880 -0.005756 0.000244 0.004004 0.036580 0.057115 0.051619 0.004877 0.012798 -0.021099 -0.034112 0.001346 0.023975 0.011891 0.013950 -0.033096 -0.007618 0.018411 0.032092 -0.003986 -0.005605 0.033411 0.029993 -0.066065 0.008816 0.029062 -0.014934 0.027028 0.028575 0.084682 0.102418 0.015695 0.023209 -0.022669 0.020303 -0.019186 0.010352 0.007720 -0.025934 -0.031150 0.058309 0.013597 0.000081 -0.064100 0.057972 -0.003807 -0.041802 -0.084654 -0.076604 -0.006350 -0.074603 -0.085644 0.018988 0.072550 -0.090229 -0.021561 0.021255 0.010866 -0.077196 0.060588 0.071501 0.088541 -0.029398 0.223222 0.272554 0.191523 0.021419 0.063181 -0.602215
0.072396 0.073047 0.074998 0.078250 0.082802 0.088651 0.095796 0.104234 0.113960 0.124970 0.137258 0.150813 0.165628 0.181688 0.198979 0.217481 0.237173 0.258029 0.280018 0.303105 0.327248 0.352401 0.378510 0.405513 0.433344 0.461924 0.491170 0.520986 0.551268 0.581902 0.612764 0.643717 0.674614 0.705298 0.735598 0.765333 0.794312 0.822330 0.849174 0.874618 0.898430 0.920368 0.940182 0.957617 0.972413 0.984310 0.993044 0.998356 0.999989 0.997696 0.991237 0.980390 0.964947 0.944723 0.919556 0.889315 0.853902 0.813255 0.767356 0.716230 0.659954 0.598660 0.532533 0.461823 0.386842 0.307966 0.225640 0.140375 0.052752 0.036585 0.126923 0.217492 0.307464 0.395961 0.482061 0.564810 0.643226 0.716317 0.783091 0.842569 0.893803 0.935891 0.967994 0.989353 0.999311 0.997327 0.982996 0.956064 0.916447 0.864245 0.799752 0.723467 0.636102 0.538583 0.432055 0.317868 0.197577 0.072922 0.054190 0.181710 0.307475 0.429244 0.544739 0.651686 0.747863 0.831150 0.899583 0.951403 0.985109 0.999512 0.993776 0.967463 0.920570 0.853551 0.767342 0.663361 0.543511 0.410154 0.266082 0.114474 0.041170 0.197093 0.349378 0.494038 0.627121 0.744831 0.843634 0.920381 0.972421 0.997706 0.994884 0.963381 0.903461 0.816262 0.703804 0.568979 0.415491 0.247789 0.070948 0.109467 0.287567 0.457329 0.612799 0.748310 0.858701 0.939528 0.987272 0.999507 0.975050 0.914069 0.818135 0.690233 0.534702 0.357132 0.164185 0.036629 0.237228 0.429273 0.604527 0.755200 0.874329 0.956117 0.996248 0.992153 0.943197 0.850803 0.718464 0.551671 0.357731 0.145486 0.075066 0.293206 0.498031 0.678986 0.826429 0.932184 0.990015 0.996056 0.949104 0.850797 0.705632 0.520832 0.306039 0.072867 0.165705 0.396022 0.604545 0.778651 0.907433 0.982430 0.998231 0.952932 0.848382 0.690208 0.487589 0.252798 0.000512 0.253070 0.491248 0.697924 0.858723 0.962033 0.999908 0.968754 0.869733 0.708845 0.496665 0.247735 0.020373 0.288246 0.536022 0.744875 0.898474 0.984328 0.994877 0.928250 0.788599 0.585965 0.335663 0.057211 0.227130 0.494105 0.721376 0.889418 0.983278 0.993983 0.919512 0.765189 0.543436 0.272908 0.023003 0.318104 0.585709 0.801074 0.943726 0.999515 0.962122 0.833898 0.625894 0.357058 0.052630 0.258159 0.544834 0.778685 0.935705 0.999137 0.961405 0.825149 0.603244 0.317753 0.002153 0.323068 0.610816 0.834107 0.968027 0.996922 0.916393 0.734096 0.469201 0.150557 0.186331 0.503189 0.763330 0.935942 0.999870 0.946370 0.780474 0.520757 0.197436 0.150978 0.482199 0.755274 0.935717 0.999988 0.938745 0.758392 0.480662 0.140210 0.219565 0.551961 0.813046 0.967543 0.993759 0.886834 0.659819 0.342338 0.023072 0.386522 0.697530 0.912082 0.998998 0.944661 0.755391 0.457018 0.091596 0.288343 0.627253 0.874716 0.993068 0.963336 0.788537 0.493734 0.122716 0.268303 0.619097 0.874721 0.994242 0.957523 0.768890 0.456999 0.070769 0.328075 0.674778 0.912096 0.999910 0.922265 0.690577 0.342298 0.064824 0.462131 0.781606 0.967556 0.986578 0.833834 0.534543 0.140142 0.280251 0.651854 0.907504 0.999988 0.911052 0.655345 0.278423 0.151068 0.553660 0.853755 0.993964 0.946339 0.718325 0.352053 0.083065 0.503286 0.826543 0.988619 0.956180 0.734011 0.364830 0.078526 0.507237 0.834183 0.991797 0.946331 0.705481 0.317611 0.137543 0.565040 0.874444 0.999143 0.911035 0.627288 0.207522 0.258318 0.669038
1.000000 1.000000 1.000000 1.000000 1.000000 1.000000 1.000000 1.000000 1.000000 1.000000 1.000000 1.000000 1.000000 1.000000 1.000000 1.000000 1.000000 1.000000 1.000000 1.000000 1.000000 1.000000 1.000000 1.000000 1.000000 1.000000 1.000000 1.000000 1.000000 1.000000 1.000000 1.000000 1.000000 1.000000 1.000000 1.000000 1.000000 1.000000 1.000000 1.000000 1.000000 1.000000 1.000000 1.000000 1.000000 1.000000 1.000000 1.000000 1.000000 1.000000 1.000000 1.000000 0.936107 0.936107 0.936107 0.936107 0.936107 0.936107 0.936107 0.936107 0.936107 0.936107 0.936107 0.936107 0.936107 0.936107 0.936107 0.936107 0.936107 0.936107 0.936107 0.936107 0.936107 0.936107 0.936107 0.936107 0.936107 0.936107 0.936107 0.936107 0.936107 0.936107 0.936107 0.936107 0.936107 0.922942 0.924428 0.927244 0.928239 0.928182 0.927748 0.927477 0.927742 0.929080 0.930894 0.947295 0.949485 0.950089 0.951271 0.949993 0.952478 0.950645 0.954895 0.965473 0.964590 0.965463 0.959292 0.960475 0.959884 0.959174 0.959510 0.959517 0.957972 0.956164 0.954653 0.954902 0.954623 0.956264 0.956655 0.956485 0.956963 0.956895 0.956733 0.953954 0.952085 0.953432 0.955045 0.954026 0.959598 0.959506 0.967659 0.968690 0.967596 0.967386 0.967585 0.967759 0.962914 0.960192 0.956110 0.943881 0.934583 0.931489 0.935032 0.939165 0.936630 0.931333 0.930260 0.927415 0.922417 0.921867 0.918897 0.918984 0.910862 0.907989 0.899159 0.898840 0.900598 0.901704 0.899889 0.888768 0.882682 0.883888 0.886916 0.880764 0.877896 0.893891 0.890808 0.894153 0.897986 0.900492 0.904931 0.892511 0.887738 0.884415 0.880079 0.878664 0.880935 0.884676 0.886600 0.886505 0.883833 0.878688 0.871861 0.878190 0.883505 0.886427 0.885111 0.885598 0.885108 0.873984 0.872992 0.863933 0.864774 0.871838 0.876422 0.873014 0.870831 0.869403 0.868690 0.868245 0.868938 0.867211 0.861533 0.857549 0.857822 0.853684 0.867596 0.864526 0.854749 0.844855 0.838786 0.847427 0.854990 0.848695 0.845589 0.822238 0.821412 0.819676 0.817217 0.818564 0.823779 0.819594 0.821746 0.818101 0.821614 0.826198 0.824688 0.819051 0.819217 0.819792 0.796725 0.803609 0.799814 0.784330 0.791730 0.777969 0.775231 0.776012 0.777281 0.762521 0.760427 0.720442 0.688627 0.703563 0.710806 0.691608 0.680926 0.679553 0.681753 0.680992 0.658755 0.637863 0.634507 0.641658 0.646181 0.650518 0.612434 0.612118 0.600156 0.568380 0.572717 0.570185 0.534304 0.542556 0.535362 0.531779 0.535738 0.542853 0.549155 0.553117 0.552816 0.540628 0.534610 0.541374 0.513067 0.510327 0.510121 0.510446 0.496300 0.493711 0.464222 0.469821 0.513762 0.475952 0.452942 0.457708 0.457942 0.466318 0.470433 0.470053 0.428435 0.458429 0.427384 0.434493 0.449276 0.431452 0.391565 0.399385 0.378928 0.394784 0.376035 0.348734 0.328978 0.331975 0.325180 0.331871 0.352403 0.338548 0.329488 0.318386 0.275950 0.307358 0.301545 0.295378 0.317504 0.347664 0.328790 0.295718 0.295880 0.284456 0.237852 0.209286 0.224239 0.220831 0.154476 0.100093 0.092682 0.076178 0.046641 0.013421 0.011476 -0.019503 -0.021439 0.018584 0.016716 -0.006736 0.009061 0.032036 0.032036 0.032036 0.032036 0.032036 0.032036 0.032036 0.032036 0.032036 0.032036 0.032036 0.032036 0.032036 0.032036 0.048844 0.048844 0.048844 0.048844 0.048844 0.048844 0.048844 0.048844 0.048844 0.048844 0.048844 0.048844
0.000000 0.000000 0.000000 0.000000 0.000000 0.000000 0.000000 0.000000 0.000000 0.000000 0.000000 0.000000 0.000000 0.000000 0.000000 0.000000 0.000000 0.000000 0.000000 0.000000 0.000000 0.000000 0.000000 0.000000 0.000000 7.000000 4.000000 0.000000 0.000000 0.000000 0.000000 0.000000 0.000000 0.000000 0.000000 0.000000 0.000000 0.000000 0.000000 0.000000 0.000000 0.000000 0.000000 0.000000 0.000000 0.000000 0.000000 0.000000 0.000000 0.000000 0.000000 0.000000 0.209657 0.209657 0.209657 0.209657 0.209657 0.209657 0.209657 0.209657 0.209657 0.209657 0.209657 0.209657 0.209657 0.209657 0.209657 0.209657 0.209657 0.209657 0.209657 0.209657 0.209657 0.209657 0.209657 0.209657 0.209657 0.209657 0.209657 0.209657 0.209657 0.209657 0.209657 0.209657 0.209657 0.244339 0.244339 0.244339 0.244339 0.244339 0.244339 0.244339 0.244339 0.244339 0.244339 0.244339 0.244339 0.244339 0.244339 0.244339 0.244339 0.244339 0.244339 0.244339 0.244339 0.244339 0.244339 0.244339 0.244339 0.244339 0.260378 0.260378 0.260378 0.260378 0.260378 0.260378 0.260378 0.260378 0.260378 0.260378 0.260378 0.260378 0.260378 0.260378 0.260378 0.260378 0.260378 0.260378 0.260378 0.260378 0.269680 0.269680 0.269680 0.269680 0.269680 0.269680 0.269680 0.269680 0.269680 0.269680 0.269680 0.269680 0.269680 0.269680 0.269680 0.269680 0.269680 0.269680 0.269680 0.269680 0.269680 0.269680 0.269680 0.269680 0.269680 0.269680 0.269680 0.269680 0.269680 0.269680 0.269680 0.269680 0.269680 0.280056 0.280056 0.280056 0.280056 0.280056 0.280056 0.280056 0.280056 0.280056 0.280056 0.280056 0.280056 0.280056 0.280056 0.280056 0.280056 0.280056 0.280056 0.280056 0.280056 0.280056 0.280056 0.280056 0.280056 0.280056 0.280056 0.280056 0.274721 0.274721 0.274721 0.274721 0.274721 0.274721 0.274721 0.274721 0.274721 0.274721 0.274721 0.274721 0.274721 0.285714 0.285714 0.285714 0.285714 0.285714 0.285714 0.285714 0.285714 0.285714 0.285714 0.285714 0.280056 0.280056 0.280056 0.280056 0.280056 0.280056 0.280056 0.280056 0.280056 0.280056 0.280056 0.274721 0.274721 0.274721 0.274721 0.274721 0.274721 0.274721 0.274721 0.274721 0.274721 0.274721 0.280056 0.280056 0.280056 0.280056 0.280056 0.280056 0.280056 0.280056 0.280056 0.280056 0.285714 0.285714 0.285714 0.285714 0.285714 0.285714 0.285714 0.285714 0.285714 0.269680 0.269680 0.269680 0.269680 0.269680 0.269680 0.269680 0.269680 0.269680 0.269680 0.274721 0.274721 0.274721 0.274721 0.274721 0.274721 0.274721 0.274721 0.274721 0.285714 0.285714 0.285714 0.285714 0.285714 0.285714 0.285714 0.285714 0.264906 0.264906 0.264906 0.264906 0.264906 0.264906 0.264906 0.264906 0.264906 0.274721 0.274721 0.274721 0.274721 0.274721 0.274721 0.274721 0.274721 0.269680 0.269680 0.269680 0.269680 0.269680 0.269680 0.269680 0.269680 0.269680 0.269680 0.269680 0.269680 0.269680 0.269680 0.269680 0.269680 0.280056 0.280056 0.280056 0.280056 0.280056 0.280056 0.280056 0.260378 0.260378 0.260378 0.260378 0.260378 0.260378 0.260378 0.260378 0.269680 0.269680 0.269680 0.269680 0.269680 0.269680 0.269680 0.264906 0.264906 0.264906 0.264906 0.264906 0.264906 0.264906 0.264906 0.264906 0.264906 0.264906 0.264906 0.264906 0.264906 0.260378 0.260378 0.260378 0.260378 0.260378 0.260378 0.260378 0.260378 0.260378 0.260378 0.260378 0.260378
