# Output from CTFFind version 4.1.9, run on 2019-11-02 17:47:30
# Input file: stack6_bm3d_averaged_1_1.25_0_1500_half.mrc ; Number of micrographs: 1
# Pixel size: 3.000 Angstroms ; acceleration voltage: 300.0 keV ; spherical aberration: 0.00 mm ; amplitude contrast: 0.07
# Box size: 512 pixels ; min. res.: 30.0 Angstroms ; max. res.: 5.0 Angstroms ; min. def.: 5000.0 um; max. def. 50000.0 um; num. frames averaged: 1
# 6 lines per micrograph: #1 - spatial frequency (1/Angstroms); #2 - 1D rotational average of spectrum (assuming no astigmatism); #3 - 1D rotational average of spectrum; #4 - CTF fit; #5 - cross-correlation between spectrum and CTF fit; #6 - 2sigma of expected cross correlation of noise
0.000000 0.000651 0.001302 0.001953 0.002604 0.003255 0.003906 0.004557 0.005208 0.005859 0.006510 0.007161 0.007812 0.008464 0.009115 0.009766 0.010417 0.011068 0.011719 0.012370 0.013021 0.013672 0.014323 0.014974 0.015625 0.016276 0.016927 0.017578 0.018229 0.018880 0.019531 0.020182 0.020833 0.021484 0.022135 0.022786 0.023438 0.024089 0.024740 0.025391 0.026042 0.026693 0.027344 0.027995 0.028646 0.029297 0.029948 0.030599 0.031250 0.031901 0.032552 0.033203 0.033854 0.034505 0.035156 0.035807 0.036458 0.037109 0.037760 0.038411 0.039062 0.039714 0.040365 0.041016 0.041667 0.042318 0.042969 0.043620 0.044271 0.044922 0.045573 0.046224 0.046875 0.047526 0.048177 0.048828 0.049479 0.050130 0.050781 0.051432 0.052083 0.052734 0.053385 0.054036 0.054688 0.055339 0.055990 0.056641 0.057292 0.057943 0.058594 0.059245 0.059896 0.060547 0.061198 0.061849 0.062500 0.063151 0.063802 0.064453 0.065104 0.065755 0.066406 0.067057 0.067708 0.068359 0.069010 0.069661 0.070312 0.070964 0.071615 0.072266 0.072917 0.073568 0.074219 0.074870 0.075521 0.076172 0.076823 0.077474 0.078125 0.078776 0.079427 0.080078 0.080729 0.081380 0.082031 0.082682 0.083333 0.083984 0.084635 0.085286 0.085938 0.086589 0.087240 0.087891 0.088542 0.089193 0.089844 0.090495 0.091146 0.091797 0.092448 0.093099 0.093750 0.094401 0.095052 0.095703 0.096354 0.097005 0.097656 0.098307 0.098958 0.099609 0.100260 0.100911 0.101562 0.102214 0.102865 0.103516 0.104167 0.104818 0.105469 0.106120 0.106771 0.107422 0.108073 0.108724 0.109375 0.110026 0.110677 0.111328 0.111979 0.112630 0.113281 0.113932 0.114583 0.115234 0.115885 0.116536 0.117188 0.117839 0.118490 0.119141 0.119792 0.120443 0.121094 0.121745 0.122396 0.123047 0.123698 0.124349 0.125000 0.125651 0.126302 0.126953 0.127604 0.128255 0.128906 0.129557 0.130208 0.130859 0.131510 0.132161 0.132812 0.133464 0.134115 0.134766 0.135417 0.136068 0.136719 0.137370 0.138021 0.138672 0.139323 0.139974 0.140625 0.141276 0.141927 0.142578 0.143229 0.143880 0.144531 0.145182 0.145833 0.146484 0.147135 0.147786 0.148438 0.149089 0.149740 0.150391 0.151042 0.151693 0.152344 0.152995 0.153646 0.154297 0.154948 0.155599 0.156250 0.156901 0.157552 0.158203 0.158854 0.159505 0.160156 0.160807 0.161458 0.162109 0.162760 0.163411 0.164062 0.164714 0.165365 0.166016 0.166667 0.167318 0.167969 0.168620 0.169271 0.169922 0.170573 0.171224 0.171875 0.172526 0.173177 0.173828 0.174479 0.175130 0.175781 0.176432 0.177083 0.177734 0.178385 0.179036 0.179688 0.180339 0.180990 0.181641 0.182292 0.182943 0.183594 0.184245 0.184896 0.185547 0.186198 0.186849 0.187500 0.188151 0.188802 0.189453 0.190104 0.190755 0.191406 0.192057 0.192708 0.193359 0.194010 0.194661 0.195312 0.195964 0.196615 0.197266 0.197917 0.198568 0.199219 0.199870 0.200521 0.201172 0.201823 0.202474 0.203125 0.203776 0.204427 0.205078 0.205729 0.206380 0.207031 0.207682 0.208333 0.208984 0.209635 0.210286 0.210938 0.211589 0.212240 0.212891 0.213542 0.214193 0.214844 0.215495 0.216146 0.216797 0.217448 0.218099 0.218750 0.219401 0.220052 0.220703 0.221354 0.222005 0.222656 0.223307 0.223958 0.224609 0.225260 0.225911 0.226562 0.227214 0.227865 0.228516 0.229167 0.229818 0.230469 0.231120 0.231771 0.232422 0.233073 0.233724 0.234375 0.235026 0.235677
       0.31009        0.31009        0.31009        0.31009        0.31009        0.31009        0.31009        0.31009        0.31009        0.31009        0.31009        0.31009        0.31009        0.31009        0.31009        0.31009        0.31009        0.31009        0.31009        0.31009        0.31009        0.31009        0.31009        0.31009        0.31009        0.31009        0.31009        0.31009        0.31009        0.31009        0.31009        0.31009        0.31009        0.31009        0.31009        0.31009        0.31009        0.31009        0.31009        0.31009        0.31009        0.31009        0.31009        0.31009        0.31009        0.31009        0.31009        0.31009        0.31009        0.31009        0.31009        0.63422        0.81416        0.41442        0.30946        0.18764       -0.10736        0.11193       -0.00139        0.03319        0.11548        0.33620        0.42280        0.40275        0.22390       -0.01257        0.04629        0.07118       -0.17086       -0.17959       -0.08664       -0.11003       -0.29467       -0.18873       -0.30398       -0.25964       -0.28550       -0.40453       -0.47521       -0.47629       -0.42007       -0.34083       -0.43758       -0.36695       -0.41122       -0.35102       -0.27527       -0.20010       -0.19504       -0.13500       -0.09159        0.03868        0.08222        0.25082        0.28336        0.37207        0.40236        0.51564        0.58801        0.60707        0.73853        0.69711        0.73900        0.65047        0.66354        0.69484        0.63172        0.61596        0.60833        0.43565        0.39413        0.35473        0.32716        0.22389        0.13116        0.06013        0.05451        0.00017       -0.08004       -0.02985       -0.03245       -0.07109        0.06387        0.16361        0.25474        0.31792        0.33577        0.42753        0.54414        0.58911        0.53818        0.67160        0.56249        0.53832        0.59852        0.63309        0.52900        0.46044        0.40154        0.37664        0.24854        0.20979        0.13308        0.11631        0.05464        0.05740        0.10420        0.16228        0.14858        0.17900        0.21988        0.23922        0.33017        0.45126        0.48900        0.49488        0.52171        0.57887        0.57112        0.52028        0.41865        0.38227        0.36394        0.26716        0.24312        0.21451        0.20644        0.20057        0.17995        0.15728        0.12366        0.18805        0.24511        0.34456        0.38053        0.40654        0.46318        0.53338        0.47238        0.48289        0.42595        0.40329        0.38049        0.36159        0.28694        0.25700        0.20096        0.23524        0.21707        0.19421        0.21526        0.22289        0.24240        0.30214        0.39994        0.39791        0.37476        0.39034        0.45227        0.47914        0.43035        0.35391        0.32232        0.27722        0.26147        0.24810        0.21391        0.28245        0.29329        0.29413        0.31239        0.30549        0.34151        0.37483        0.36977        0.36841        0.35484        0.31840        0.33117        0.31866        0.29499        0.28661        0.27041        0.21430        0.26893        0.27203        0.30110        0.31954        0.34100        0.37303        0.33514        0.31601        0.35872        0.36690        0.26341        0.29419        0.30669        0.24240        0.20901        0.26230        0.27471        0.27672        0.29856        0.30349        0.33180        0.33217        0.35610        0.32413        0.32097        0.30839        0.29269        0.26848        0.24382        0.25386        0.25776        0.27768        0.29882        0.29372        0.29466        0.31793        0.33075        0.26490        0.30551        0.26693        0.25798        0.26965        0.26033        0.25755        0.26139        0.31017        0.28135        0.31275        0.28814        0.27542        0.31044        0.30701        0.33030        0.31363        0.29388        0.24968        0.25471        0.26763        0.26100        0.30949        0.31569        0.33469        0.32180        0.31030        0.25643        0.28510        0.21376        0.19865        0.25420        0.26461        0.25653        0.28531        0.31491        0.29513        0.35323        0.30284        0.25673        0.22684        0.23903        0.29332        0.30749        0.30254        0.26998        0.28048        0.25645        0.31273        0.27598        0.25177        0.27120        0.25145        0.28862        0.25238        0.28436        0.32837        0.28854        0.20851        0.23542        0.27800        0.31773        0.25726        0.26052        0.23812        0.28583        0.29167        0.38270        0.29095        0.27051        0.26011        0.25381        0.21691        0.18219        0.24723        0.20915        0.19946        0.18292        0.19267        0.24127        0.21966        0.23933        0.19758        0.24798        0.22631        0.20919        0.18256        0.15378        0.19166        0.23878        0.14907        0.07024        0.21029        0.18976        0.13738        0.23777        0.15197        0.22460        0.19052       -0.08736       -0.51677       -0.98228
2.867584 2.839328 2.811217 2.783251 2.755431 2.727756 2.700227 2.672844 2.645606 2.618513 2.591566 2.564765 2.538109 2.511598 2.485233 2.459014 2.432940 2.407011 2.381228 2.355591 2.330099 2.304753 2.279552 2.254497 2.229587 2.204822 2.180204 2.155730 2.131403 2.107220 2.083183 2.059292 2.035547 2.011946 1.988492 1.965183 1.942019 1.919001 1.896128 1.873401 1.850819 1.828383 1.806093 1.783947 1.761948 1.740094 1.718385 1.696822 1.675405 1.654133 1.633006 1.932235 2.281656 1.706726 1.748090 1.388562 0.946491 1.206204 1.032364 1.081984 1.034226 1.502107 1.524208 1.550831 1.284421 0.950316 0.828394 1.017590 0.719522 0.492926 0.594233 0.681777 0.422973 0.492802 0.328622 0.366602 0.251835 0.162065 -0.035726 0.005782 0.032132 0.079863 0.042235 0.081060 -0.041591 0.028463 0.110901 0.228595 0.286588 0.213366 0.326121 0.557698 0.450491 0.732322 0.802610 0.886237 0.911599 1.124725 1.144945 1.180538 1.332473 1.236515 1.381484 1.196060 1.115539 1.301068 1.146898 1.059622 1.132913 0.893838 0.738626 0.678030 0.675753 0.469138 0.396592 0.263379 0.223051 0.094795 -0.009210 0.092396 0.025203 -0.065117 0.113057 0.258952 0.307388 0.465350 0.486632 0.554824 0.722381 0.821581 0.658398 0.961192 0.809087 0.652019 0.771447 0.791941 0.711236 0.642025 0.443763 0.501289 0.285526 0.187548 0.140371 0.007561 -0.017751 -0.108862 -0.017593 0.015256 0.092590 -0.049346 0.253037 0.097744 0.207722 0.374132 0.432202 0.528113 0.435945 0.563045 0.665900 0.505793 0.383671 0.332119 0.319745 0.144912 0.131040 0.013141 0.094899 0.021561 0.002537 -0.030390 -0.123637 -0.014585 0.015946 0.105706 0.292235 0.204244 0.353730 0.374511 0.424201 0.413575 0.402745 0.336899 0.227226 0.304968 0.163035 0.162216 0.004895 0.055010 0.066240 -0.019586 -0.006224 0.014442 0.061799 0.076907 0.222168 0.303848 0.245384 0.212214 0.373199 0.397953 0.355295 0.246653 0.173219 0.145781 0.082802 0.073713 0.027184 0.021082 0.134517 0.052723 0.186234 0.086320 0.133728 0.226988 0.216544 0.231962 0.196309 0.198755 0.119107 0.165109 0.122036 0.098660 0.117812 -0.006181 0.028857 0.084790 0.048468 0.153673 0.115018 0.212637 0.197979 0.133208 0.135527 0.221292 0.123830 0.067994 0.093246 0.064795 -0.004495 -0.022317 0.055884 0.076334 0.037090 0.117010 0.110735 0.123348 0.138259 0.171366 0.128014 0.086947 0.105762 0.085831 0.020979 0.012054 0.037117 0.007176 0.075348 0.106587 0.068959 0.063264 0.129745 0.110085 0.015792 0.119388 0.020870 0.022987 0.046276 0.016705 0.008464 0.061741 0.084146 0.016957 0.102863 0.068601 0.023556 0.117350 0.070019 0.090334 0.088761 0.025731 -0.013694 -0.011072 0.038502 0.002093 0.064954 0.096908 0.090934 0.059303 0.137585 -0.018435 0.046364 -0.098060 -0.029670 -0.020463 0.008096 0.018200 0.024719 0.093036 0.055461 0.115463 -0.004831 -0.034206 -0.081787 -0.079702 0.071286 0.029758 0.043099 -0.021981 -0.008167 -0.038822 0.042937 0.004419 -0.069296 -0.012498 -0.086734 0.021921 -0.043550 0.015625 0.063231 -0.021308 -0.090642 -0.040901 0.057303 0.041997 -0.023141 0.001340 -0.064643 0.094807 0.074941 0.179732 0.039439 0.014938 0.018974 0.064380 -0.054971 -0.036136 0.056544 -0.011170 -0.041715 -0.040627 -0.038198 0.092790 -0.058020 0.101426 -0.011830 0.109488 -0.003123 0.062890 -0.068768 -0.043769 -0.045117 0.112410 -0.024645 -0.235885 0.295684 0.269162 0.195290 0.401390 0.210215 0.287263 0.299464 -0.120653 -1.378784
0.072396 0.072834 0.074149 0.076339 0.079405 0.083346 0.088160 0.093848 0.100406 0.107834 0.116128 0.125286 0.135304 0.146178 0.157901 0.170468 0.183871 0.198101 0.213149 0.229001 0.245644 0.263063 0.281240 0.300155 0.319786 0.340106 0.361088 0.382701 0.404910 0.427676 0.450959 0.474713 0.498888 0.523429 0.548278 0.573373 0.598644 0.624020 0.649423 0.674770 0.699972 0.724937 0.749565 0.773755 0.797396 0.820375 0.842573 0.863868 0.884132 0.903234 0.921039 0.937407 0.952200 0.965273 0.976482 0.985683 0.992730 0.997480 0.999790 0.999522 0.996542 0.990720 0.981933 0.970067 0.955016 0.936685 0.914993 0.889871 0.861266 0.829141 0.793480 0.754284 0.711578 0.665409 0.615848 0.562995 0.506972 0.447935 0.386064 0.321572 0.254701 0.185725 0.114947 0.042702 0.030645 0.104702 0.179045 0.253229 0.326782 0.399210 0.470001 0.538627 0.604550 0.667222 0.726094 0.780619 0.830254 0.874474 0.912771 0.944661 0.969696 0.987463 0.997598 0.999785 0.993772 0.979369 0.956459 0.925004 0.885047 0.836719 0.780243 0.715938 0.644218 0.565595 0.480681 0.390181 0.294897 0.195717 0.093613 0.010367 0.115107 0.219436 0.322140 0.421973 0.517674 0.607984 0.691661 0.767500 0.834352 0.891144 0.936895 0.970742 0.991952 0.999945 0.994307 0.974809 0.941418 0.894306 0.833861 0.760691 0.675623 0.579702 0.474185 0.360528 0.240374 0.115532 0.012049 0.140304 0.267083 0.390192 0.507425 0.616608 0.715639 0.802533 0.875465 0.932814 0.973203 0.995536 0.999038 0.983280 0.948204 0.894143 0.821830 0.732399 0.627380 0.508680 0.378559 0.239594 0.094637 0.053245 0.200822 0.344777 0.481781 0.608563 0.722001 0.819197 0.897562 0.954889 0.989425 0.999936 0.985755 0.946823 0.883716 0.797653 0.690491 0.564693 0.423293 0.269827 0.108260 0.057118 0.221788 0.381137 0.530577 0.665689 0.782350 0.876875 0.946139 0.987692 0.999864 0.981837 0.933707 0.856508 0.752219 0.623727 0.474769 0.309839 0.134061 0.046953 0.227281 0.400880 0.561790 0.704344 0.823372 0.914405 0.973854 0.999171 0.988974 0.943136 0.862830 0.750529 0.609956 0.445979 0.264469 0.072097 0.123894 0.315956 0.496527 0.658333 0.794685 0.899775 0.968938 0.998878 0.987852 0.935789 0.844340 0.716865 0.558335 0.375173 0.175004 0.033634 0.241655 0.439804 0.619077 0.771142 0.888735 0.966030 0.998956 0.985434 0.925536 0.821543 0.677894 0.501039 0.299172 0.081882 0.140294 0.356359 0.555410 0.727192 0.862641 0.954385 0.997174 0.988214 0.927383 0.817304 0.663285 0.473098 0.256626 0.025373 0.208123 0.430968 0.630623 0.795615 0.916230 0.985107 0.997723 0.952734 0.852137 0.701224 0.508374 0.284609 0.043010 0.202029 0.435652 0.643432 0.812286 0.931324 0.992577 0.991587 0.927768 0.804541 0.629214 0.412595 0.168376 0.087702 0.338848 0.568307 0.760497 0.902092 0.982970 0.997002 0.942553 0.822712 0.645182 0.421846 0.168017 0.098565 0.358950 0.594338 0.787423 0.923718 0.992666 0.988527 0.910909 0.764917 0.560893 0.313745 0.041920 0.233966 0.492636 0.713835 0.879913 0.977291 0.997623 0.938577 0.804151 0.604498 0.355215 0.076197 0.209906 0.479519 0.710080 0.881957 0.980159 0.995715 0.926562 0.777869 0.561743 0.296316 0.004298 0.288936 0.557528 0.777435 0.928603 0.996862 0.975334 0.865198 0.675748 0.423708 0.131830 0.173111 0.462725 0.709665 0.890233 0.986709 0.989161 0.896566 0.717079 0.467423 0.171417 0.142235 0.442679 0.699952 0.887989
1.000000 1.000000 1.000000 1.000000 1.000000 1.000000 1.000000 1.000000 1.000000 1.000000 1.000000 1.000000 1.000000 1.000000 1.000000 1.000000 1.000000 1.000000 1.000000 1.000000 1.000000 1.000000 1.000000 1.000000 1.000000 1.000000 1.000000 1.000000 1.000000 1.000000 1.000000 1.000000 1.000000 1.000000 1.000000 1.000000 1.000000 1.000000 1.000000 1.000000 1.000000 1.000000 1.000000 1.000000 1.000000 1.000000 1.000000 1.000000 1.000000 1.000000 1.000000 1.000000 0.833128 0.833128 0.833128 0.833128 0.833128 0.833128 0.833128 0.816507 0.816507 0.816507 0.816507 0.816507 0.816507 0.816507 0.816507 0.816507 0.816507 0.816507 0.816507 0.816507 0.816507 0.816507 0.816507 0.816507 0.816507 0.816507 0.816507 0.816507 0.816507 0.816507 0.816507 0.816507 0.816507 0.816507 0.816507 0.816507 0.816507 0.816507 0.816507 0.816507 0.816507 0.816507 0.816507 0.816507 0.816507 0.816507 0.816507 0.816507 0.816507 0.816507 0.816507 0.954813 0.955409 0.952449 0.951338 0.949654 0.946342 0.942037 0.941607 0.942966 0.943166 0.943772 0.945105 0.946076 0.947678 0.948664 0.949470 0.950274 0.958407 0.962131 0.961860 0.961560 0.952332 0.959150 0.957176 0.954910 0.955696 0.955992 0.956698 0.956577 0.956413 0.955905 0.954560 0.955286 0.955122 0.954377 0.953324 0.951174 0.951131 0.950682 0.950819 0.951795 0.952703 0.953357 0.953885 0.953865 0.954047 0.952546 0.951872 0.947017 0.947043 0.940343 0.940948 0.942018 0.941607 0.940463 0.938944 0.939009 0.938889 0.938824 0.938665 0.938887 0.921024 0.920594 0.920621 0.921176 0.914699 0.904017 0.896786 0.890641 0.891615 0.895801 0.900706 0.901088 0.897765 0.896920 0.880023 0.876862 0.862313 0.858900 0.848643 0.859045 0.860211 0.861669 0.856248 0.855491 0.854022 0.851613 0.840073 0.844583 0.845146 0.841328 0.837791 0.835490 0.833221 0.835321 0.844025 0.840800 0.838332 0.840295 0.829594 0.819415 0.818087 0.820088 0.828623 0.840765 0.839704 0.838558 0.831542 0.827752 0.821075 0.814957 0.814477 0.816413 0.816257 0.820092 0.820229 0.828052 0.817901 0.812753 0.817866 0.829075 0.834361 0.836335 0.838233 0.835966 0.835906 0.815886 0.816612 0.818117 0.769723 0.769804 0.757739 0.756756 0.751375 0.750029 0.747081 0.744995 0.738640 0.717890 0.730646 0.735355 0.710407 0.717756 0.711848 0.701914 0.681340 0.684699 0.698154 0.707533 0.707991 0.712676 0.702487 0.702582 0.712295 0.711838 0.718357 0.711873 0.707961 0.701715 0.703448 0.695428 0.685753 0.682775 0.682249 0.683009 0.679035 0.661238 0.671170 0.661397 0.650729 0.638904 0.600363 0.576008 0.561934 0.552831 0.534302 0.507211 0.519720 0.526350 0.512464 0.503429 0.482776 0.444154 0.428458 0.427099 0.406827 0.395415 0.374862 0.329486 0.341612 0.334246 0.339341 0.321741 0.315865 0.301165 0.243170 0.237833 0.198701 0.216360 0.239326 0.233454 0.214474 0.204689 0.226005 0.228194 0.236717 0.235004 0.251632 0.208177 0.149252 0.173918 0.166819 0.177245 0.160755 0.131634 0.158735 0.158939 0.171125 0.175342 0.129219 0.099988 0.078211 0.066470 0.073227 0.095485 0.109650 0.099424 0.084797 -0.007792 0.024677 0.048511 0.048511 0.048511 0.048511 0.048511 0.048511 0.048511 0.048511 0.048511 0.048511 0.048511 -0.007710 -0.007710 -0.007710 -0.007710 -0.007710 -0.007710 -0.007710 -0.007710 -0.007710 -0.007710 -0.007710 -0.007710 -0.007710 -0.007710 -0.007710 -0.007710 -0.007710 -0.007710 -0.007710
0.000000 0.000000 0.000000 0.000000 0.000000 0.000000 0.000000 0.000000 0.000000 0.000000 0.000000 0.000000 0.000000 0.000000 0.000000 0.000000 0.000000 0.000000 0.000000 0.000000 0.000000 0.000000 0.000000 0.000000 0.000000 0.000000 0.000000 0.000000 0.000000 0.000000 0.000000 0.000000 0.000000 0.000000 0.000000 0.000000 0.000000 0.000000 0.000000 0.000000 0.000000 0.000000 0.000000 0.000000 0.000000 0.000000 0.000000 0.000000 0.000000 0.000000 0.000000 0.000000 0.173422 0.173422 0.173422 0.173422 0.173422 0.173422 0.173422 0.191565 0.191565 0.191565 0.191565 0.191565 0.191565 0.191565 0.191565 0.191565 0.191565 0.191565 0.191565 0.191565 0.191565 0.191565 0.191565 0.191565 0.191565 0.191565 0.191565 0.191565 0.191565 0.191565 0.191565 0.191565 0.191565 0.191565 0.191565 0.191565 0.191565 0.191565 0.191565 0.191565 0.191565 0.191565 0.191565 0.191565 0.191565 0.191565 0.191565 0.191565 0.191565 0.191565 0.191565 0.219529 0.219529 0.219529 0.219529 0.219529 0.219529 0.219529 0.219529 0.219529 0.219529 0.219529 0.219529 0.219529 0.219529 0.219529 0.219529 0.219529 0.219529 0.219529 0.219529 0.219529 0.219529 0.219529 0.219529 0.219529 0.219529 0.219529 0.219529 0.219529 0.219529 0.219529 0.237356 0.237356 0.237356 0.237356 0.237356 0.237356 0.237356 0.237356 0.237356 0.237356 0.237356 0.237356 0.237356 0.237356 0.237356 0.237356 0.237356 0.237356 0.237356 0.237356 0.237356 0.237356 0.237356 0.237356 0.244339 0.244339 0.244339 0.244339 0.244339 0.244339 0.244339 0.244339 0.244339 0.244339 0.244339 0.244339 0.244339 0.244339 0.244339 0.244339 0.244339 0.244339 0.244339 0.244339 0.244339 0.248069 0.248069 0.248069 0.248069 0.248069 0.248069 0.248069 0.248069 0.248069 0.248069 0.248069 0.248069 0.248069 0.248069 0.248069 0.248069 0.248069 0.248069 0.248069 0.248069 0.248069 0.248069 0.248069 0.248069 0.248069 0.248069 0.248069 0.248069 0.248069 0.248069 0.248069 0.248069 0.248069 0.248069 0.248069 0.248069 0.248069 0.256074 0.256074 0.256074 0.256074 0.256074 0.256074 0.256074 0.256074 0.256074 0.256074 0.256074 0.256074 0.256074 0.256074 0.256074 0.256074 0.256074 0.256074 0.256074 0.256074 0.256074 0.256074 0.256074 0.256074 0.256074 0.256074 0.256074 0.256074 0.256074 0.256074 0.256074 0.256074 0.256074 0.256074 0.256074 0.256074 0.256074 0.256074 0.256074 0.256074 0.256074 0.256074 0.256074 0.256074 0.256074 0.260378 0.260378 0.260378 0.260378 0.260378 0.260378 0.260378 0.260378 0.260378 0.260378 0.260378 0.260378 0.260378 0.256074 0.256074 0.256074 0.256074 0.256074 0.256074 0.256074 0.256074 0.256074 0.256074 0.256074 0.256074 0.256074 0.260378 0.260378 0.260378 0.260378 0.260378 0.260378 0.260378 0.260378 0.260378 0.260378 0.260378 0.260378 0.251976 0.251976 0.251976 0.251976 0.251976 0.251976 0.251976 0.251976 0.251976 0.251976 0.251976 0.251976 0.256074 0.256074 0.256074 0.256074 0.256074 0.256074 0.256074 0.256074 0.256074 0.256074 0.256074 0.251976 0.251976 0.251976 0.251976 0.251976 0.251976 0.251976 0.251976 0.251976 0.251976 0.251976 0.248069 0.248069 0.248069 0.248069 0.248069 0.248069 0.248069 0.248069 0.248069 0.248069 0.248069 0.256074 0.256074 0.256074 0.256074 0.256074 0.256074 0.256074 0.256074 0.256074 0.256074 0.256074 0.256074 0.256074 0.256074 0.256074 0.256074 0.256074 0.256074 0.256074
