# Output from CTFFind version 4.1.9, run on 2019-11-03 20:06:45
# Input file: stack1_bm3d_averaged_1_7.0_0_1250_half.mrc ; Number of micrographs: 1
# Pixel size: 3.000 Angstroms ; acceleration voltage: 300.0 keV ; spherical aberration: 0.00 mm ; amplitude contrast: 0.07
# Box size: 512 pixels ; min. res.: 30.0 Angstroms ; max. res.: 5.0 Angstroms ; min. def.: 5000.0 um; max. def. 50000.0 um; num. frames averaged: 1
# 6 lines per micrograph: #1 - spatial frequency (1/Angstroms); #2 - 1D rotational average of spectrum (assuming no astigmatism); #3 - 1D rotational average of spectrum; #4 - CTF fit; #5 - cross-correlation between spectrum and CTF fit; #6 - 2sigma of expected cross correlation of noise
0.000000 0.000651 0.001302 0.001953 0.002604 0.003255 0.003906 0.004557 0.005208 0.005859 0.006510 0.007161 0.007812 0.008464 0.009115 0.009766 0.010417 0.011068 0.011719 0.012370 0.013021 0.013672 0.014323 0.014974 0.015625 0.016276 0.016927 0.017578 0.018229 0.018880 0.019531 0.020182 0.020833 0.021484 0.022135 0.022786 0.023438 0.024089 0.024740 0.025391 0.026042 0.026693 0.027344 0.027995 0.028646 0.029297 0.029948 0.030599 0.031250 0.031901 0.032552 0.033203 0.033854 0.034505 0.035156 0.035807 0.036458 0.037109 0.037760 0.038411 0.039062 0.039714 0.040365 0.041016 0.041667 0.042318 0.042969 0.043620 0.044271 0.044922 0.045573 0.046224 0.046875 0.047526 0.048177 0.048828 0.049479 0.050130 0.050781 0.051432 0.052083 0.052734 0.053385 0.054036 0.054688 0.055339 0.055990 0.056641 0.057292 0.057943 0.058594 0.059245 0.059896 0.060547 0.061198 0.061849 0.062500 0.063151 0.063802 0.064453 0.065104 0.065755 0.066406 0.067057 0.067708 0.068359 0.069010 0.069661 0.070312 0.070964 0.071615 0.072266 0.072917 0.073568 0.074219 0.074870 0.075521 0.076172 0.076823 0.077474 0.078125 0.078776 0.079427 0.080078 0.080729 0.081380 0.082031 0.082682 0.083333 0.083984 0.084635 0.085286 0.085938 0.086589 0.087240 0.087891 0.088542 0.089193 0.089844 0.090495 0.091146 0.091797 0.092448 0.093099 0.093750 0.094401 0.095052 0.095703 0.096354 0.097005 0.097656 0.098307 0.098958 0.099609 0.100260 0.100911 0.101562 0.102214 0.102865 0.103516 0.104167 0.104818 0.105469 0.106120 0.106771 0.107422 0.108073 0.108724 0.109375 0.110026 0.110677 0.111328 0.111979 0.112630 0.113281 0.113932 0.114583 0.115234 0.115885 0.116536 0.117188 0.117839 0.118490 0.119141 0.119792 0.120443 0.121094 0.121745 0.122396 0.123047 0.123698 0.124349 0.125000 0.125651 0.126302 0.126953 0.127604 0.128255 0.128906 0.129557 0.130208 0.130859 0.131510 0.132161 0.132812 0.133464 0.134115 0.134766 0.135417 0.136068 0.136719 0.137370 0.138021 0.138672 0.139323 0.139974 0.140625 0.141276 0.141927 0.142578 0.143229 0.143880 0.144531 0.145182 0.145833 0.146484 0.147135 0.147786 0.148438 0.149089 0.149740 0.150391 0.151042 0.151693 0.152344 0.152995 0.153646 0.154297 0.154948 0.155599 0.156250 0.156901 0.157552 0.158203 0.158854 0.159505 0.160156 0.160807 0.161458 0.162109 0.162760 0.163411 0.164062 0.164714 0.165365 0.166016 0.166667 0.167318 0.167969 0.168620 0.169271 0.169922 0.170573 0.171224 0.171875 0.172526 0.173177 0.173828 0.174479 0.175130 0.175781 0.176432 0.177083 0.177734 0.178385 0.179036 0.179688 0.180339 0.180990 0.181641 0.182292 0.182943 0.183594 0.184245 0.184896 0.185547 0.186198 0.186849 0.187500 0.188151 0.188802 0.189453 0.190104 0.190755 0.191406 0.192057 0.192708 0.193359 0.194010 0.194661 0.195312 0.195964 0.196615 0.197266 0.197917 0.198568 0.199219 0.199870 0.200521 0.201172 0.201823 0.202474 0.203125 0.203776 0.204427 0.205078 0.205729 0.206380 0.207031 0.207682 0.208333 0.208984 0.209635 0.210286 0.210938 0.211589 0.212240 0.212891 0.213542 0.214193 0.214844 0.215495 0.216146 0.216797 0.217448 0.218099 0.218750 0.219401 0.220052 0.220703 0.221354 0.222005 0.222656 0.223307 0.223958 0.224609 0.225260 0.225911 0.226562 0.227214 0.227865 0.228516 0.229167 0.229818 0.230469 0.231120 0.231771 0.232422 0.233073 0.233724 0.234375 0.235026 0.235677
       0.34479        0.34479        0.34479        0.34479        0.34479        0.34479        0.34479        0.34479        0.34479        0.34479        0.34479        0.34479        0.34479        0.34479        0.34479        0.34479        0.34479        0.34479        0.34479        0.34479        0.34479        0.34479        0.34479        0.34479        0.34479        0.34479        0.34479        0.34479        0.34479        0.34479        0.34479        0.34479        0.34479        0.34479        0.34479        0.34479        0.34479        0.34479        0.34479        0.34479        0.34479        0.34479        0.34479        0.34479        0.34479        0.34479        0.34479        0.34479        0.34479        0.34479        0.34479        0.34472        0.48926        0.22754        0.07966        0.00136       -0.27026       -0.11434       -0.15865       -0.22158        0.00871       -0.14500       -0.07212       -0.06276       -0.04636       -0.12471       -0.16139       -0.25451       -0.30823       -0.42144       -0.35532       -0.25610       -0.22594       -0.32334       -0.24066       -0.30208       -0.27123       -0.29455       -0.13398       -0.14591       -0.20742       -0.03856        0.02699       -0.02652        0.07289        0.03389        0.23070        0.24469        0.33590        0.35074        0.38462        0.42269        0.49829        0.55708        0.56793        0.50971        0.48717        0.51167        0.46473        0.52160        0.44542        0.41205        0.41531        0.35315        0.29731        0.30740        0.33430        0.22720        0.19677        0.12829        0.15311        0.16347        0.18249        0.16222        0.23277        0.28678        0.31345        0.29268        0.38814        0.46838        0.39638        0.48617        0.59675        0.55271        0.52146        0.56152        0.59694        0.41778        0.48181        0.39582        0.32544        0.30301        0.28309        0.25361        0.19263        0.18432        0.14984        0.20404        0.25775        0.28813        0.34291        0.30585        0.40969        0.42511        0.45851        0.48690        0.48250        0.51285        0.45572        0.43558        0.40831        0.33961        0.31934        0.31228        0.31866        0.25270        0.24510        0.25562        0.24349        0.27156        0.32624        0.42871        0.46109        0.41978        0.42220        0.47142        0.45854        0.46734        0.46178        0.38171        0.36453        0.40062        0.36289        0.30621        0.29948        0.31928        0.28253        0.29940        0.30038        0.31668        0.36229        0.37822        0.42904        0.43961        0.36208        0.45181        0.42029        0.35478        0.30594        0.34868        0.32908        0.30507        0.32031        0.28187        0.28530        0.32340        0.33795        0.44054        0.40957        0.37352        0.39045        0.43056        0.36470        0.35339        0.34023        0.34721        0.28121        0.27857        0.30164        0.37670        0.38189        0.34010        0.34820        0.39642        0.39119        0.45269        0.39563        0.36347        0.33226        0.32782        0.32197        0.31704        0.34217        0.38760        0.36845        0.37259        0.32878        0.43864        0.35839        0.34934        0.33439        0.37817        0.37144        0.30600        0.31341        0.27792        0.31215        0.32793        0.31453        0.33889        0.33366        0.35572        0.34489        0.33689        0.30845        0.29869        0.28400        0.33058        0.33903        0.33843        0.30014        0.34437        0.33812        0.33607        0.33766        0.30482        0.28561        0.31235        0.32692        0.32155        0.31560        0.29773        0.31481        0.34181        0.33149        0.33055        0.38446        0.33737        0.27351        0.31594        0.32561        0.32148        0.34161        0.29368        0.32640        0.28348        0.31684        0.31816        0.36713        0.31840        0.31250        0.29885        0.28502        0.37052        0.36042        0.32324        0.32248        0.30194        0.30256        0.33644        0.33279        0.28203        0.32157        0.27403        0.26415        0.27748        0.30551        0.31908        0.32697        0.23504        0.28188        0.33998        0.33428        0.33978        0.33159        0.30998        0.31342        0.32676        0.31473        0.25752        0.27692        0.28599        0.33389        0.32545        0.34174        0.34829        0.34054        0.33833        0.32874        0.32320        0.30840        0.31537        0.31382        0.26049        0.28117        0.32479        0.33717        0.24254        0.19835        0.20998        0.30139        0.30958        0.29608        0.27839        0.27352        0.27948        0.23866        0.26978        0.27025        0.27051        0.25683        0.25521        0.25248        0.20485        0.24967        0.32214        0.36786        0.26654        0.23725        0.20411        0.18661        0.27907        0.28778        0.38721        0.26596        0.24006        0.29879        0.36393        0.18278       -0.00653       -0.10674       -0.54294       -0.75563
3.361010 3.323549 3.286300 3.249262 3.212437 3.175824 3.139423 3.103234 3.067258 3.031493 2.995940 2.960599 2.925470 2.890554 2.855849 2.821356 2.787076 2.753008 2.719151 2.685507 2.652074 2.618854 2.585846 2.553049 2.520465 2.488093 2.455933 2.423985 2.392249 2.360725 2.329413 2.298313 2.267426 2.236750 2.206286 2.176034 2.145995 2.116167 2.086552 2.057148 2.027957 1.998977 1.970210 1.941655 1.913311 1.885180 1.857261 1.829554 1.802059 1.774776 1.747705 1.648686 1.961104 1.695857 1.078631 1.146224 0.364858 0.899011 0.527351 0.640023 0.919849 0.667036 0.655149 0.754325 0.688959 0.640245 0.462844 0.342016 0.183147 -0.007045 -0.003351 0.107879 0.402387 -0.033602 0.162002 0.042434 0.146231 -0.059954 0.258700 0.181475 0.096904 0.297767 0.495701 0.288167 0.455908 0.362854 0.770242 0.637738 0.854119 0.866033 0.810365 1.032062 0.932361 1.235864 1.066342 1.107057 0.985189 1.006619 0.950128 0.891207 0.931329 0.757966 0.725556 0.652520 0.616024 0.459559 0.556400 0.445871 0.276693 0.200341 0.137776 0.180255 0.218619 0.156497 0.182015 0.360606 0.344812 0.359679 0.461913 0.530519 0.530574 0.413548 0.798567 0.811982 0.620629 0.669746 0.754077 0.530363 0.417591 0.492852 0.197118 0.246585 0.101132 0.161072 -0.016989 -0.036305 -0.108919 -0.103929 0.104615 -0.000264 0.128409 0.187779 0.161943 0.309110 0.310385 0.383233 0.342245 0.448320 0.340160 0.265437 0.243214 0.145625 0.089489 0.054860 0.024399 0.003858 -0.063347 -0.093647 -0.095161 -0.064884 -0.059830 0.138962 0.311819 0.198338 0.207209 0.261406 0.345291 0.242038 0.342996 0.281972 0.151172 0.132258 0.275199 0.004197 0.043462 0.028589 0.057959 -0.012799 0.086390 -0.009011 0.138189 -0.008521 0.230187 0.267873 0.192804 0.251027 0.204076 0.153692 0.041849 0.076537 0.080643 0.023501 -0.005570 0.040875 -0.070790 -0.014796 0.026614 0.116247 0.281502 0.150313 0.121123 0.210083 0.142525 0.135177 0.047732 0.063573 0.061714 -0.089321 -0.010373 0.034858 0.144265 0.115513 0.036415 0.083208 0.175793 0.161561 0.280339 0.111244 0.094406 0.042788 0.013524 0.059122 0.030684 0.092113 0.163856 0.115592 0.083487 0.137234 0.190594 0.018704 0.073547 0.055321 0.133469 0.069294 -0.008909 0.007770 -0.053860 0.011941 0.047822 0.027651 0.019136 -0.014370 0.055376 0.019676 0.011961 -0.042378 -0.053217 -0.036719 -0.026265 0.059943 -0.022311 -0.008451 0.034857 0.043634 0.022021 0.056172 -0.033894 -0.030841 0.005108 0.025291 0.022055 0.021249 -0.027323 -0.005425 0.078416 0.023300 0.018758 0.166229 -0.041302 -0.064372 0.024512 0.013070 0.011130 0.033642 -0.041308 0.023324 -0.070471 0.024014 0.021506 0.098179 -0.024563 -0.020017 -0.042705 -0.032970 0.091221 0.068507 -0.031541 0.032285 -0.057333 -0.032063 0.024417 -0.003676 -0.071270 0.030615 -0.114100 -0.091310 -0.048488 -0.064416 0.039142 -0.072453 -0.218877 -0.022907 0.056023 -0.022975 -0.021046 0.033504 -0.054089 -0.026952 -0.034881 -0.057095 -0.131864 -0.128340 -0.123301 0.023055 -0.009654 -0.023464 0.019593 0.030299 -0.105117 0.027833 -0.010092 -0.087353 -0.016599 -0.007954 -0.129488 -0.056286 -0.001330 0.067569 -0.090545 -0.264766 -0.108878 0.110908 0.011466 -0.037297 0.039150 0.023617 0.015249 -0.046109 -0.053564 0.033109 0.010697 0.018181 -0.002358 0.052499 -0.135971 0.057329 0.236875 0.183488 0.053783 0.069211 -0.107382 0.027122 0.071568 0.099096 0.383393 0.419243 0.413093 0.529752 0.752792 0.338645 -0.118641 -0.173629 -1.287328
0.072396 0.072907 0.074441 0.076996 0.080572 0.085169 0.090784 0.097417 0.105065 0.113725 0.123394 0.134067 0.145739 0.158402 0.172049 0.186670 0.202254 0.218788 0.236254 0.254636 0.273913 0.294060 0.315050 0.336852 0.359432 0.382750 0.406764 0.431425 0.456679 0.482469 0.508730 0.535392 0.562378 0.589606 0.616987 0.644425 0.671817 0.699052 0.726014 0.752580 0.778617 0.803988 0.828547 0.852145 0.874623 0.895819 0.915564 0.933685 0.950007 0.964348 0.976529 0.986365 0.993674 0.998276 0.999992 0.998650 0.994080 0.986126 0.974635 0.959472 0.940513 0.917649 0.890792 0.859874 0.824850 0.785698 0.742427 0.695075 0.643710 0.588437 0.529395 0.466761 0.400752 0.331624 0.259676 0.185249 0.108722 0.030520 0.048893 0.129014 0.209303 0.289184 0.368051 0.445269 0.520180 0.592110 0.660370 0.724269 0.783116 0.836231 0.882951 0.922641 0.954703 0.978585 0.993792 0.999893 0.996536 0.983452 0.960469 0.927519 0.884646 0.832010 0.769899 0.698730 0.619051 0.531543 0.437021 0.336428 0.230834 0.121422 0.009484 0.103591 0.216341 0.327236 0.434709 0.537169 0.633033 0.720745 0.798810 0.865815 0.920463 0.961601 0.988245 0.999610 0.995136 0.974508 0.937676 0.884871 0.816620 0.733745 0.637371 0.528912 0.410070 0.282806 0.149321 0.012019 0.126528 0.263628 0.396515 0.522414 0.638592 0.742423 0.831453 0.903462 0.956531 0.989095 0.999999 0.988548 0.954544 0.898313 0.820724 0.723193 0.607674 0.476628 0.332995 0.180127 0.021727 0.138240 0.295636 0.446261 0.585965 0.710764 0.816960 0.901266 0.960910 0.993744 0.998335 0.974033 0.921033 0.840395 0.734055 0.604798 0.456205 0.292570 0.118795 0.059751 0.237385 0.408296 0.566723 0.707168 0.824588 0.914587 0.973604 0.999067 0.989524 0.944743 0.865762 0.754905 0.615738 0.452984 0.272387 0.080523 0.115419 0.307903 0.489334 0.652355 0.790163 0.896802 0.967443 0.998627 0.988459 0.936743 0.845055 0.716734 0.556793 0.371763 0.169448 0.041381 0.251354 0.450917 0.630757 0.782264 0.897945 0.971834 0.999818 0.979908 0.912402 0.799945 0.647475 0.462049 0.252552 0.029300 0.196446 0.413045 0.609065 0.773911 0.898408 0.975348 0.999943 0.970162 0.886933 0.754177 0.578683 0.369807 0.139012 0.100728 0.335641 0.551947 0.736671 0.878445 0.968238 0.999981 0.971019 0.882380 0.738815 0.548608 0.323154 0.076325 0.176360 0.418688 0.634791 0.810205 0.932865 0.993989 0.988750 0.916721 0.782025 0.593174 0.362601 0.105897 0.159211 0.414052 0.640340 0.821481 0.943848 0.997849 0.978746 0.887131 0.729031 0.515585 0.262350 0.011806 0.286041 0.539131 0.751111 0.904882 0.987653 0.992059 0.916903 0.767408 0.554949 0.296276 0.012251 0.273770 0.537859 0.757523 0.913639 0.992199 0.985636 0.893637 0.723355 0.488952 0.210512 0.087602 0.378846 0.636856 0.837832 0.962808 0.999509 0.943647 0.799519 0.579801 0.304533 0.000614 0.306680 0.584135 0.805756 0.949335 0.999990 0.951809 0.808644 0.583945 0.299619 0.016019 0.330992 0.612895 0.832224 0.965541 0.998069 0.925433 0.754369 0.502232 0.195376 0.133521 0.448875 0.716046 0.905161 0.994558 0.973367 0.842966 0.617090 0.320517 0.013511 0.346957 0.641276 0.861910 0.982401 0.987697 0.876159 0.660041 0.364304 0.023869 0.320413 0.626633 0.856945 0.982310 0.986292 0.867357 0.639372 0.330156 0.021768 0.371877 0.675260 0.892397 0.994405 0.967022 0.812763 0.550923 0.215330 0.149866 0.495940 0.776084 0.951774
1.000000 1.000000 1.000000 1.000000 1.000000 1.000000 1.000000 1.000000 1.000000 1.000000 1.000000 1.000000 1.000000 1.000000 1.000000 1.000000 1.000000 1.000000 1.000000 1.000000 1.000000 1.000000 1.000000 1.000000 1.000000 1.000000 1.000000 1.000000 1.000000 1.000000 1.000000 1.000000 1.000000 1.000000 1.000000 1.000000 1.000000 1.000000 1.000000 1.000000 1.000000 1.000000 1.000000 1.000000 1.000000 1.000000 1.000000 1.000000 1.000000 1.000000 1.000000 1.000000 0.829024 0.829024 0.829024 0.808042 0.808042 0.808042 0.808042 0.808042 0.808042 0.808042 0.808042 0.808042 0.808042 0.808042 0.808042 0.808042 0.808042 0.808042 0.808042 0.808042 0.808042 0.808042 0.808042 0.808042 0.808042 0.808042 0.808042 0.808042 0.808042 0.808042 0.808042 0.808042 0.808042 0.808042 0.808042 0.808042 0.808042 0.808042 0.808042 0.808042 0.808042 0.808042 0.808042 0.808042 0.855873 0.862421 0.867563 0.870571 0.870820 0.867741 0.866609 0.866161 0.865544 0.866765 0.873081 0.898426 0.915700 0.917780 0.929099 0.930944 0.935817 0.938451 0.958179 0.959704 0.961140 0.960286 0.961222 0.963131 0.967186 0.967343 0.968319 0.968642 0.968788 0.969372 0.969090 0.968318 0.967310 0.966614 0.964110 0.964013 0.964516 0.965120 0.965724 0.960395 0.960654 0.960904 0.962838 0.961328 0.946735 0.941077 0.937262 0.935348 0.915639 0.916788 0.915286 0.911055 0.902831 0.902899 0.892563 0.893737 0.893257 0.887650 0.886271 0.883198 0.879760 0.870167 0.868840 0.867253 0.869349 0.873459 0.876368 0.862144 0.846383 0.829195 0.812483 0.797089 0.798031 0.802149 0.797947 0.801814 0.804831 0.803506 0.801948 0.796542 0.782545 0.791308 0.789790 0.785800 0.779436 0.778713 0.765215 0.759320 0.752932 0.728944 0.710255 0.695766 0.699458 0.689996 0.686676 0.689140 0.697233 0.700412 0.703564 0.696910 0.694014 0.681108 0.655516 0.661131 0.672217 0.672477 0.661026 0.657621 0.635895 0.662533 0.667573 0.686098 0.694835 0.695118 0.694500 0.675059 0.645495 0.618083 0.619765 0.602907 0.614663 0.622366 0.620312 0.608277 0.618645 0.629411 0.640968 0.601013 0.599271 0.582539 0.579966 0.579761 0.577725 0.545754 0.520730 0.509113 0.485765 0.467905 0.482740 0.473603 0.471336 0.495629 0.459488 0.457423 0.455480 0.456874 0.456009 0.447494 0.424408 0.426930 0.427488 0.410156 0.388255 0.331576 0.315263 0.315926 0.318873 0.322170 0.343689 0.360958 0.322996 0.299663 0.300493 0.324132 0.316925 0.328712 0.334740 0.307180 0.303955 0.210922 0.209291 0.231507 0.240414 0.253323 0.230714 0.250401 0.251087 0.229812 0.205394 0.138420 0.087847 0.067485 0.092737 0.102900 0.114053 0.100244 0.072714 0.075756 0.083453 0.038484 0.023118 0.016821 0.019870 0.034459 0.060383 0.053704 0.052225 0.066381 0.082191 0.048821 0.042094 0.048268 0.072235 0.055069 0.037926 0.012032 0.002786 -0.016491 -0.023432 -0.001442 0.010404 0.018161 0.051552 0.024983 -0.019134 -0.046311 -0.037620 -0.054273 -0.060580 -0.091000 -0.075067 -0.096438 -0.077606 -0.057791 0.006791 0.010989 0.012802 -0.011905 0.015811 -0.029045 -0.039698 -0.031009 -0.050199 -0.037440 0.012034 0.025301 0.030658 -0.018437 -0.034324 -0.034324 -0.034324 -0.056070 -0.056070 -0.056070 -0.056070 -0.056070 -0.056070 -0.056070 -0.056070 -0.056070 -0.067493 -0.067493 -0.067493 -0.067493 -0.067493 -0.067493 -0.067493 -0.067493 -0.067493 -0.067493 -0.067493 -0.067493 -0.067493 -0.067493 -0.067493 -0.067493 -0.067493
0.000000 0.000000 0.000000 0.000000 0.000000 0.000000 0.000000 0.000000 0.000000 0.000000 0.000000 0.000000 0.000000 0.000000 0.000000 0.000000 0.000000 0.000000 0.000000 0.000000 0.000000 0.000000 0.000000 0.000000 0.000000 0.000000 0.000000 0.000000 0.000000 0.000000 0.000000 0.000000 0.000000 0.000000 0.000000 0.000000 0.000000 0.000000 0.000000 0.000000 0.000000 0.000000 0.000000 0.000000 0.000000 0.000000 0.000000 0.000000 0.000000 0.000000 0.000000 0.000000 0.180334 0.180334 0.180334 0.199007 0.199007 0.199007 0.199007 0.199007 0.199007 0.199007 0.199007 0.199007 0.199007 0.199007 0.199007 0.199007 0.199007 0.199007 0.199007 0.199007 0.199007 0.199007 0.199007 0.199007 0.199007 0.199007 0.199007 0.199007 0.199007 0.199007 0.199007 0.199007 0.199007 0.199007 0.199007 0.199007 0.199007 0.199007 0.199007 0.199007 0.199007 0.199007 0.199007 0.199007 0.230940 0.230940 0.230940 0.230940 0.230940 0.230940 0.230940 0.230940 0.230940 0.230940 0.230940 0.230940 0.230940 0.230940 0.230940 0.230940 0.230940 0.230940 0.230940 0.230940 0.230940 0.230940 0.230940 0.230940 0.230940 0.230940 0.230940 0.230940 0.248069 0.248069 0.248069 0.248069 0.248069 0.248069 0.248069 0.248069 0.248069 0.248069 0.248069 0.248069 0.248069 0.248069 0.248069 0.248069 0.248069 0.248069 0.248069 0.248069 0.248069 0.248069 0.251976 0.251976 0.251976 0.251976 0.251976 0.251976 0.251976 0.251976 0.251976 0.251976 0.251976 0.251976 0.251976 0.251976 0.251976 0.251976 0.251976 0.251976 0.251976 0.251976 0.256074 0.256074 0.256074 0.256074 0.256074 0.256074 0.256074 0.256074 0.256074 0.256074 0.256074 0.256074 0.256074 0.256074 0.256074 0.256074 0.256074 0.256074 0.264906 0.264906 0.264906 0.264906 0.264906 0.264906 0.264906 0.264906 0.264906 0.264906 0.264906 0.264906 0.264906 0.264906 0.264906 0.264906 0.264906 0.264906 0.264906 0.264906 0.264906 0.264906 0.264906 0.264906 0.264906 0.264906 0.264906 0.264906 0.264906 0.264906 0.264906 0.274721 0.274721 0.274721 0.274721 0.274721 0.274721 0.274721 0.274721 0.274721 0.274721 0.274721 0.274721 0.274721 0.256074 0.256074 0.256074 0.256074 0.256074 0.256074 0.256074 0.256074 0.256074 0.256074 0.256074 0.256074 0.256074 0.256074 0.269680 0.269680 0.269680 0.269680 0.269680 0.269680 0.269680 0.269680 0.269680 0.269680 0.269680 0.269680 0.264906 0.264906 0.264906 0.264906 0.264906 0.264906 0.264906 0.264906 0.264906 0.264906 0.264906 0.264906 0.269680 0.269680 0.269680 0.269680 0.269680 0.269680 0.269680 0.269680 0.269680 0.269680 0.269680 0.264906 0.264906 0.264906 0.264906 0.264906 0.264906 0.264906 0.264906 0.264906 0.264906 0.264906 0.269680 0.269680 0.269680 0.269680 0.269680 0.269680 0.269680 0.269680 0.269680 0.269680 0.251976 0.251976 0.251976 0.251976 0.251976 0.251976 0.251976 0.251976 0.251976 0.251976 0.251976 0.269680 0.269680 0.269680 0.269680 0.269680 0.269680 0.269680 0.269680 0.269680 0.256074 0.256074 0.256074 0.256074 0.256074 0.256074 0.256074 0.256074 0.256074 0.256074 0.260378 0.260378 0.260378 0.260378 0.260378 0.260378 0.260378 0.260378 0.260378 0.256074 0.256074 0.256074 0.256074 0.256074 0.256074 0.256074 0.256074 0.256074 0.251976 0.251976 0.251976 0.251976 0.251976 0.251976 0.251976 0.251976 0.251976 0.251976 0.251976 0.251976 0.251976 0.251976 0.251976 0.251976 0.251976
