# Output from CTFFind version 4.1.9, run on 2019-11-02 17:44:31
# Input file: stack16_bm3d_averaged_1_1.25_0_250_half.mrc ; Number of micrographs: 1
# Pixel size: 3.000 Angstroms ; acceleration voltage: 300.0 keV ; spherical aberration: 0.00 mm ; amplitude contrast: 0.07
# Box size: 512 pixels ; min. res.: 30.0 Angstroms ; max. res.: 5.0 Angstroms ; min. def.: 5000.0 um; max. def. 50000.0 um; num. frames averaged: 1
# 6 lines per micrograph: #1 - spatial frequency (1/Angstroms); #2 - 1D rotational average of spectrum (assuming no astigmatism); #3 - 1D rotational average of spectrum; #4 - CTF fit; #5 - cross-correlation between spectrum and CTF fit; #6 - 2sigma of expected cross correlation of noise
0.000000 0.000651 0.001302 0.001953 0.002604 0.003255 0.003906 0.004557 0.005208 0.005859 0.006510 0.007161 0.007812 0.008464 0.009115 0.009766 0.010417 0.011068 0.011719 0.012370 0.013021 0.013672 0.014323 0.014974 0.015625 0.016276 0.016927 0.017578 0.018229 0.018880 0.019531 0.020182 0.020833 0.021484 0.022135 0.022786 0.023438 0.024089 0.024740 0.025391 0.026042 0.026693 0.027344 0.027995 0.028646 0.029297 0.029948 0.030599 0.031250 0.031901 0.032552 0.033203 0.033854 0.034505 0.035156 0.035807 0.036458 0.037109 0.037760 0.038411 0.039062 0.039714 0.040365 0.041016 0.041667 0.042318 0.042969 0.043620 0.044271 0.044922 0.045573 0.046224 0.046875 0.047526 0.048177 0.048828 0.049479 0.050130 0.050781 0.051432 0.052083 0.052734 0.053385 0.054036 0.054688 0.055339 0.055990 0.056641 0.057292 0.057943 0.058594 0.059245 0.059896 0.060547 0.061198 0.061849 0.062500 0.063151 0.063802 0.064453 0.065104 0.065755 0.066406 0.067057 0.067708 0.068359 0.069010 0.069661 0.070312 0.070964 0.071615 0.072266 0.072917 0.073568 0.074219 0.074870 0.075521 0.076172 0.076823 0.077474 0.078125 0.078776 0.079427 0.080078 0.080729 0.081380 0.082031 0.082682 0.083333 0.083984 0.084635 0.085286 0.085938 0.086589 0.087240 0.087891 0.088542 0.089193 0.089844 0.090495 0.091146 0.091797 0.092448 0.093099 0.093750 0.094401 0.095052 0.095703 0.096354 0.097005 0.097656 0.098307 0.098958 0.099609 0.100260 0.100911 0.101562 0.102214 0.102865 0.103516 0.104167 0.104818 0.105469 0.106120 0.106771 0.107422 0.108073 0.108724 0.109375 0.110026 0.110677 0.111328 0.111979 0.112630 0.113281 0.113932 0.114583 0.115234 0.115885 0.116536 0.117188 0.117839 0.118490 0.119141 0.119792 0.120443 0.121094 0.121745 0.122396 0.123047 0.123698 0.124349 0.125000 0.125651 0.126302 0.126953 0.127604 0.128255 0.128906 0.129557 0.130208 0.130859 0.131510 0.132161 0.132812 0.133464 0.134115 0.134766 0.135417 0.136068 0.136719 0.137370 0.138021 0.138672 0.139323 0.139974 0.140625 0.141276 0.141927 0.142578 0.143229 0.143880 0.144531 0.145182 0.145833 0.146484 0.147135 0.147786 0.148438 0.149089 0.149740 0.150391 0.151042 0.151693 0.152344 0.152995 0.153646 0.154297 0.154948 0.155599 0.156250 0.156901 0.157552 0.158203 0.158854 0.159505 0.160156 0.160807 0.161458 0.162109 0.162760 0.163411 0.164062 0.164714 0.165365 0.166016 0.166667 0.167318 0.167969 0.168620 0.169271 0.169922 0.170573 0.171224 0.171875 0.172526 0.173177 0.173828 0.174479 0.175130 0.175781 0.176432 0.177083 0.177734 0.178385 0.179036 0.179688 0.180339 0.180990 0.181641 0.182292 0.182943 0.183594 0.184245 0.184896 0.185547 0.186198 0.186849 0.187500 0.188151 0.188802 0.189453 0.190104 0.190755 0.191406 0.192057 0.192708 0.193359 0.194010 0.194661 0.195312 0.195964 0.196615 0.197266 0.197917 0.198568 0.199219 0.199870 0.200521 0.201172 0.201823 0.202474 0.203125 0.203776 0.204427 0.205078 0.205729 0.206380 0.207031 0.207682 0.208333 0.208984 0.209635 0.210286 0.210938 0.211589 0.212240 0.212891 0.213542 0.214193 0.214844 0.215495 0.216146 0.216797 0.217448 0.218099 0.218750 0.219401 0.220052 0.220703 0.221354 0.222005 0.222656 0.223307 0.223958 0.224609 0.225260 0.225911 0.226562 0.227214 0.227865 0.228516 0.229167 0.229818 0.230469 0.231120 0.231771 0.232422 0.233073 0.233724 0.234375 0.235026 0.235677
       0.34058        0.34058        0.34058        0.34058        0.34058        0.34058        0.34058        0.34058        0.34058        0.34058        0.34058        0.34058        0.34058        0.34058        0.34058        0.34058        0.34058        0.34058        0.34058        0.34058        0.34058        0.34058        0.34058        0.34058        0.34058        0.34058        0.34058        0.34058        0.34058        0.34058        0.34058        0.34058        0.34058        0.34058        0.34058        0.34058        0.34058        0.34058        0.34058        0.34058        0.34058        0.34058        0.34058        0.34058        0.34058        0.34058        0.34058        0.34058        0.34058        0.34058        0.34058        0.48673        0.69850        0.45491       -0.11548       -0.41398       -0.57442       -0.66609       -0.74703       -0.76487       -0.87198       -0.91833       -0.76065       -0.92743       -0.87471       -1.02692       -1.10144       -0.99095       -0.96538       -0.88605       -0.85865       -0.75085       -0.64272       -0.50225       -0.42680       -0.22167       -0.11735       -0.02331        0.20113        0.24182        0.30612        0.37929        0.43383        0.51229        0.57638        0.59466        0.58739        0.49806        0.54278        0.48416        0.39201        0.32079        0.20162        0.16764        0.09719       -0.05951       -0.11149       -0.09302        0.01033       -0.01752        0.01569        0.02467        0.20412        0.21620        0.38989        0.45381        0.55804        0.69372        0.75730        0.73145        0.70083        0.69486        0.57897        0.53559        0.39685        0.27111        0.19241        0.14606        0.06685        0.02710        0.02164        0.06240        0.07656        0.27089        0.41575        0.50552        0.58815        0.63664        0.69891        0.65585        0.64942        0.66772        0.60515        0.48008        0.28431        0.23643        0.20469        0.12613        0.03975        0.08962        0.11568        0.24817        0.34173        0.41369        0.50011        0.53691        0.65653        0.60462        0.55146        0.51142        0.36017        0.20685        0.21114        0.15213        0.11779        0.12223        0.21441        0.25034        0.35316        0.43875        0.43557        0.55357        0.50540        0.45102        0.45567        0.37782        0.32180        0.27196        0.21145        0.23151        0.21050        0.20318        0.31515        0.44999        0.48211        0.48145        0.55166        0.49424        0.45232        0.39384        0.29567        0.22528        0.23093        0.23832        0.26267        0.27567        0.32557        0.44092        0.49973        0.48716        0.45939        0.41204        0.38679        0.36007        0.24846        0.22018        0.24480        0.29182        0.35554        0.35932        0.38689        0.41158        0.43924        0.37102        0.34652        0.31338        0.30724        0.26794        0.25599        0.30139        0.34430        0.41159        0.41416        0.39156        0.39048        0.40098        0.34474        0.28541        0.29342        0.28300        0.30593        0.35584        0.37132        0.41629        0.35489        0.36346        0.38536        0.34301        0.31405        0.28071        0.29125        0.33734        0.32329        0.32056        0.36846        0.38878        0.32928        0.35024        0.29963        0.30683        0.28283        0.28120        0.29868        0.32844        0.38282        0.36307        0.34372        0.32246        0.28159        0.27326        0.29474        0.28203        0.31346        0.36455        0.39249        0.33305        0.31687        0.30603        0.29849        0.28731        0.28027        0.30048        0.33728        0.33500        0.33840        0.31557        0.34827        0.31873        0.28716        0.31312        0.31954        0.33681        0.34415        0.31792        0.31050        0.29922        0.32488        0.30946        0.33493        0.38479        0.32659        0.36033        0.31462        0.30621        0.29008        0.30682        0.29009        0.30579        0.31383        0.34646        0.35491        0.30754        0.32033        0.31675        0.29415        0.28854        0.29283        0.32313        0.34467        0.35136        0.32907        0.31643        0.26395        0.25661        0.31380        0.34338        0.32286        0.29526        0.27636        0.28562        0.32567        0.31216        0.30964        0.33481        0.33602        0.30275        0.23896        0.28600        0.28445        0.28313        0.32387        0.32159        0.34248        0.33977        0.28466        0.27119        0.29550        0.27416        0.29526        0.27304        0.25092        0.25706        0.25625        0.28344        0.28993        0.28012        0.26131        0.31950        0.32039        0.30736        0.27250        0.28277        0.23841        0.25948        0.24989        0.32403        0.35358        0.22890        0.24357        0.27028        0.23813        0.23817        0.30160        0.22833        0.13875        0.17785        0.22715        0.26559        0.21732        0.11640        0.07222       -0.42081       -0.79715
3.171015 3.131122 3.091487 3.052109 3.012990 2.974129 2.935526 2.897181 2.859094 2.821265 2.783694 2.746382 2.709327 2.672531 2.635992 2.599712 2.563690 2.527925 2.492419 2.457171 2.422181 2.387449 2.352975 2.318759 2.284802 2.251102 2.217661 2.184477 2.151552 2.118884 2.086475 2.054324 2.022431 1.990796 1.959419 1.928300 1.897439 1.866836 1.836491 1.806405 1.776576 1.747006 1.717693 1.688639 1.659843 1.631304 1.603024 1.575002 1.547238 1.519732 1.492484 1.551504 1.735099 1.650868 0.992076 0.709384 0.499138 0.448777 0.342218 0.281286 0.216406 0.032484 0.213026 0.093877 0.001772 -0.047790 -0.193681 -0.145842 -0.084085 -0.086294 -0.088471 0.017434 0.037726 0.240084 0.154541 0.370072 0.453253 0.486145 0.722966 0.706929 0.714969 0.842761 0.825249 0.857110 0.926520 0.899244 0.942400 0.753390 0.838370 0.842057 0.625874 0.604969 0.452526 0.432192 0.375751 0.207266 0.115313 0.091523 0.201343 0.136647 0.193048 0.103187 0.298434 0.278300 0.450596 0.405786 0.574450 0.633657 0.753030 0.692665 0.654836 0.654683 0.518047 0.493592 0.352384 0.281946 0.105263 0.133466 -0.010177 -0.023515 -0.053140 -0.042626 -0.017613 0.016681 0.264920 0.317160 0.374482 0.387256 0.453001 0.479433 0.438258 0.482860 0.375131 0.368805 0.129192 0.047901 0.050610 -0.030643 -0.154232 -0.070291 -0.139479 -0.009278 0.113938 0.135003 0.233815 0.235802 0.359719 0.438692 0.325431 0.370583 0.257650 0.099058 0.024466 0.025817 -0.006899 -0.020457 -0.015304 0.085342 0.099906 0.241317 0.214972 0.281939 0.341801 0.226662 0.235158 0.203293 0.114809 0.069427 0.031110 0.012033 0.026837 -0.030600 0.010628 0.172903 0.214195 0.236575 0.275510 0.239114 0.249566 0.152162 0.118753 -0.011564 -0.009408 0.003516 0.022742 0.021021 0.039671 0.115570 0.205575 0.218180 0.223841 0.130167 0.145043 0.079796 0.061163 -0.064053 -0.018810 -0.003510 0.056891 0.067307 0.072619 0.149900 0.091258 0.170083 0.067689 0.053724 0.046747 0.030676 0.005100 0.004061 0.048565 0.086837 0.128461 0.135867 0.071455 0.126697 0.096760 0.012600 0.010701 0.008976 -0.000608 0.052101 0.061359 0.104570 0.097814 0.071472 0.066354 0.078322 0.034860 0.016356 -0.014481 0.009064 0.057139 0.022960 0.036712 0.078836 0.082793 0.055812 0.034691 0.015722 0.015389 -0.008292 -0.008713 0.012536 0.055226 0.108325 0.059943 0.056777 0.036773 -0.013604 -0.003527 0.017826 0.014526 0.029659 0.105337 0.060836 0.018616 0.045381 0.001499 0.029682 -0.007532 0.001604 0.024923 0.059978 0.042691 0.041393 0.030073 0.056777 0.023918 -0.003976 0.031090 0.040092 0.045455 0.043766 0.029037 -0.003231 -0.012030 0.029337 0.006377 0.049432 0.072734 0.041740 0.028865 0.003345 0.000482 -0.005445 0.009277 0.003320 0.010035 -0.004004 0.080051 0.045031 0.030234 0.041446 0.004284 0.011294 0.003989 -0.002638 0.048336 0.065433 0.078178 0.043981 0.044671 -0.023559 0.002046 0.034512 0.071574 0.035217 0.032532 -0.004401 0.004936 0.050647 0.052461 0.034374 0.068060 0.059247 0.042318 -0.028107 0.015265 0.042591 0.015418 0.044083 0.061724 0.086257 0.062244 0.019097 0.007905 0.015883 0.001741 0.029970 -0.023725 -0.017576 -0.024981 -0.042574 0.003136 -0.001242 0.006947 -0.073647 0.013221 0.007004 -0.007121 -0.048761 0.005686 -0.095405 -0.034340 -0.048179 0.025131 0.070673 -0.111651 -0.037942 0.027633 -0.005221 -0.054015 0.042194 0.015481 -0.029401 -0.046897 0.040063 0.234139 0.193487 0.058218 0.067445 -0.706519
0.072396 0.073046 0.074994 0.078241 0.082785 0.088625 0.095758 0.104183 0.113893 0.124886 0.137153 0.150688 0.165478 0.181513 0.198777 0.217250 0.236912 0.257736 0.279691 0.302743 0.326851 0.351967 0.378039 0.405005 0.432798 0.461341 0.490551 0.520332 0.550580 0.581183 0.612016 0.642943 0.673819 0.704486 0.734774 0.764504 0.793484 0.821511 0.848371 0.873842 0.897690 0.919675 0.939548 0.957055 0.971937 0.983932 0.992780 0.998220 0.999998 0.997864 0.991581 0.980925 0.965689 0.945687 0.920756 0.890765 0.855613 0.815238 0.769619 0.718779 0.662793 0.601788 0.535949 0.465520 0.390809 0.312188 0.230098 0.145046 0.057605 0.031583 0.121812 0.212316 0.302274 0.390811 0.477010 0.559920 0.638565 0.711954 0.779098 0.839018 0.890766 0.933439 0.966195 0.988273 0.999009 0.997853 0.984394 0.958366 0.919675 0.868405 0.804835 0.729449 0.642942 0.546222 0.440413 0.326849 0.207065 0.082783 0.044106 0.171569 0.297455 0.419534 0.535535 0.643186 0.740266 0.824650 0.894361 0.947627 0.982927 0.999044 0.995113 0.970659 0.925640 0.860467 0.776030 0.673700 0.555331 0.423235 0.280162 0.129248 0.026041 0.181981 0.334676 0.480148 0.614449 0.733771 0.834556 0.913619 0.968260 0.996369 0.996521 0.968061 0.911161 0.826862 0.717088 0.584628 0.433097 0.266855 0.090901 0.089257 0.267773 0.438644 0.595912 0.733878 0.847326 0.931730 0.983461 0.999962 0.979903 0.923284 0.831506 0.707376 0.555067 0.380007 0.188724 0.011382 0.212300 0.405729 0.583417 0.737515 0.860953 0.947779 0.993482 0.995258 0.952213 0.865492 0.738308 0.575883 0.385277 0.175120 0.044741 0.263685 0.470826 0.655556 0.808095 0.920049 0.984901 0.998438 0.959067 0.868011 0.729352 0.549917 0.338997 0.107925 0.130508 0.362736 0.575181 0.755063 0.891198 0.974730 0.999768 0.963855 0.868255 0.718006 0.521741 0.291261 0.040885 0.213400 0.454943 0.667513 0.836423 0.949577 0.998407 0.978586 0.890484 0.739304 0.534878 0.291108 0.025104 0.243987 0.496324 0.712845 0.876737 0.974801 0.998589 0.945222 0.817797 0.625344 0.382285 0.107453 0.177306 0.448835 0.684543 0.864319 0.972308 0.998402 0.939281 0.798924 0.588477 0.325500 0.032600 0.264451 0.538937 0.765627 0.923137 0.996025 0.976426 0.865014 0.671199 0.412473 0.112963 0.198726 0.492209 0.738265 0.911807 0.994528 0.976951 0.859659 0.653514 0.378835 0.063505 0.259726 0.556635 0.795132 0.948802 0.999949 0.941774 0.779436 0.529795 0.219840 0.116100 0.440069 0.714769 0.907886 0.996010 0.967623 0.824776 0.583212 0.270821 0.075417 0.413713 0.702473 0.905481 0.996529 0.962992 0.807759 0.549268 0.219528 0.139669 0.481956 0.762358 0.943259 0.999603 0.922552 0.721085 0.421222 0.062872 0.305313 0.632478 0.872617 0.991146 0.970084 0.811015 0.535321 0.181577 0.199661 0.552962 0.826084 0.977787 0.984263 0.843109 0.574195 0.217161 0.174225 0.540006 0.823225 0.978898 0.981350 0.828728 0.543827 0.171009 0.230497 0.595859 0.865116 0.993156 0.957501 0.762554 0.439460 0.041427 0.364806 0.710061 0.934573 0.998486 0.889248 0.624365 0.248995 0.171486 0.562679 0.854302 0.992963 0.952185 0.737810 0.387593 0.035072 0.452424 0.786537 0.973982 0.978094 0.796501 0.462289 0.038351 0.394165 0.751269 0.962509 0.985119 0.813027 0.478815 0.047954 0.393710 0.756932 0.967169 0.980146 0.791560 0.438749 0.006244 0.451100 0.802251 0.984661 0.958163 0.726730 0.338467 0.123967 0.560639
1.000000 1.000000 1.000000 1.000000 1.000000 1.000000 1.000000 1.000000 1.000000 1.000000 1.000000 1.000000 1.000000 1.000000 1.000000 1.000000 1.000000 1.000000 1.000000 1.000000 1.000000 1.000000 1.000000 1.000000 1.000000 1.000000 1.000000 1.000000 1.000000 1.000000 1.000000 1.000000 1.000000 1.000000 1.000000 1.000000 1.000000 1.000000 1.000000 1.000000 1.000000 1.000000 1.000000 1.000000 1.000000 1.000000 1.000000 1.000000 1.000000 1.000000 1.000000 1.000000 0.942382 0.942382 0.942382 0.942382 0.942382 0.942382 0.942382 0.942382 0.942382 0.942382 0.942382 0.942382 0.942382 0.942382 0.942382 0.942382 0.942382 0.942382 0.942382 0.942382 0.942382 0.942382 0.942382 0.942382 0.942382 0.942382 0.942382 0.942382 0.942382 0.942382 0.942382 0.942382 0.942382 0.923029 0.924500 0.927475 0.928549 0.928511 0.928053 0.927730 0.927938 0.929645 0.931958 0.948607 0.950761 0.951438 0.952743 0.953173 0.956063 0.954888 0.957843 0.966672 0.965616 0.965988 0.966493 0.967981 0.968360 0.968341 0.967027 0.967313 0.966910 0.966069 0.965222 0.964922 0.964631 0.966256 0.966590 0.966536 0.966963 0.966749 0.966441 0.962895 0.961533 0.962846 0.964580 0.964156 0.970297 0.970535 0.979219 0.979971 0.978465 0.978356 0.978456 0.978577 0.970457 0.965922 0.961331 0.950162 0.941777 0.938916 0.941038 0.941588 0.940102 0.935134 0.934330 0.932550 0.928453 0.927753 0.927189 0.928485 0.923266 0.919544 0.902080 0.900436 0.902860 0.902861 0.900868 0.892819 0.887973 0.888635 0.891610 0.894735 0.892116 0.894530 0.889251 0.890274 0.890926 0.892674 0.895920 0.892379 0.890553 0.886419 0.882966 0.876997 0.878052 0.866646 0.869767 0.862257 0.851756 0.844003 0.847210 0.856979 0.865677 0.873845 0.872788 0.873341 0.872480 0.865173 0.866296 0.854466 0.855151 0.860195 0.865961 0.862867 0.860617 0.865806 0.863862 0.866179 0.868894 0.866369 0.864326 0.854910 0.855548 0.856110 0.872536 0.872571 0.860813 0.852157 0.841892 0.848963 0.852741 0.852150 0.853681 0.845792 0.847926 0.839647 0.826300 0.828644 0.834005 0.827609 0.828488 0.827605 0.832220 0.834703 0.833820 0.829866 0.828712 0.833677 0.804952 0.813275 0.815540 0.810019 0.814228 0.807905 0.800458 0.795807 0.794042 0.793894 0.802164 0.799670 0.768080 0.766387 0.774105 0.755980 0.746034 0.743710 0.745306 0.731646 0.718371 0.687832 0.681113 0.663452 0.664555 0.659491 0.636182 0.622694 0.609106 0.598759 0.613232 0.615771 0.585317 0.585463 0.574985 0.569664 0.564939 0.561902 0.557500 0.563885 0.569441 0.535538 0.530587 0.540524 0.513361 0.512360 0.512485 0.504250 0.477649 0.484356 0.481893 0.505942 0.528803 0.486132 0.478219 0.496377 0.513769 0.525294 0.526164 0.510824 0.490108 0.497663 0.475591 0.457125 0.470673 0.471561 0.449023 0.466508 0.463870 0.497149 0.488448 0.462384 0.483318 0.485628 0.485771 0.499262 0.515004 0.508660 0.512267 0.503150 0.453887 0.475760 0.463448 0.415938 0.418701 0.433863 0.422956 0.425671 0.400664 0.399740 0.375850 0.344940 0.345426 0.338314 0.300827 0.262876 0.267595 0.269839 0.237308 0.204649 0.225415 0.176747 0.167690 0.185841 0.190383 0.179210 0.182914 0.207514 0.207514 0.207514 0.207514 0.207514 0.207514 0.207514 0.207514 0.207514 0.207514 0.207514 0.207514 0.207514 0.207514 0.233401 0.233401 0.233401 0.233401 0.233401 0.233401 0.233401 0.233401 0.233401 0.233401 0.233401 0.233401
0.000000 0.000000 0.000000 0.000000 0.000000 0.000000 0.000000 0.000000 0.000000 0.000000 0.000000 0.000000 0.000000 0.000000 0.000000 0.000000 0.000000 0.000000 0.000000 0.000000 0.000000 0.000000 0.000000 0.000000 0.000000 0.000000 0.000000 0.000000 0.000000 0.000000 0.000000 0.000000 0.000000 0.000000 0.000000 0.000000 0.000000 0.000000 0.000000 0.000000 0.000000 0.000000 0.000000 0.000000 0.000000 0.000000 0.000000 0.000000 0.000000 0.000000 0.000000 0.000000 0.209657 0.209657 0.209657 0.209657 0.209657 0.209657 0.209657 0.209657 0.209657 0.209657 0.209657 0.209657 0.209657 0.209657 0.209657 0.209657 0.209657 0.209657 0.209657 0.209657 0.209657 0.209657 0.209657 0.209657 0.209657 0.209657 0.209657 0.209657 0.209657 0.209657 0.209657 0.209657 0.209657 0.244339 0.244339 0.244339 0.244339 0.244339 0.244339 0.244339 0.244339 0.244339 0.244339 0.244339 0.244339 0.244339 0.244339 0.244339 0.244339 0.244339 0.244339 0.244339 0.244339 0.244339 0.244339 0.244339 0.244339 0.244339 0.260378 0.260378 0.260378 0.260378 0.260378 0.260378 0.260378 0.260378 0.260378 0.260378 0.260378 0.260378 0.260378 0.260378 0.260378 0.260378 0.260378 0.260378 0.260378 0.260378 0.269680 0.269680 0.269680 0.269680 0.269680 0.269680 0.269680 0.269680 0.269680 0.269680 0.269680 0.269680 0.269680 0.269680 0.269680 0.269680 0.269680 0.269680 0.269680 0.269680 0.269680 0.269680 0.269680 0.269680 0.269680 0.269680 0.269680 0.269680 0.269680 0.269680 0.269680 0.269680 0.269680 0.280056 0.280056 0.280056 0.280056 0.280056 0.280056 0.280056 0.280056 0.280056 0.280056 0.280056 0.280056 0.280056 0.280056 0.280056 0.280056 0.280056 0.280056 0.280056 0.280056 0.280056 0.280056 0.280056 0.280056 0.280056 0.280056 0.280056 0.274721 0.274721 0.274721 0.274721 0.274721 0.274721 0.274721 0.274721 0.274721 0.274721 0.274721 0.274721 0.274721 0.285714 0.285714 0.285714 0.285714 0.285714 0.285714 0.285714 0.285714 0.285714 0.285714 0.285714 0.280056 0.280056 0.280056 0.280056 0.280056 0.280056 0.280056 0.280056 0.280056 0.280056 0.280056 0.274721 0.274721 0.274721 0.274721 0.274721 0.274721 0.274721 0.274721 0.274721 0.274721 0.274721 0.280056 0.280056 0.280056 0.280056 0.280056 0.280056 0.280056 0.280056 0.280056 0.280056 0.285714 0.285714 0.285714 0.285714 0.285714 0.285714 0.285714 0.285714 0.285714 0.269680 0.269680 0.269680 0.269680 0.269680 0.269680 0.269680 0.269680 0.269680 0.269680 0.274721 0.274721 0.274721 0.274721 0.274721 0.274721 0.274721 0.274721 0.274721 0.285714 0.285714 0.285714 0.285714 0.285714 0.285714 0.285714 0.285714 0.264906 0.264906 0.264906 0.264906 0.264906 0.264906 0.264906 0.264906 0.264906 0.274721 0.274721 0.274721 0.274721 0.274721 0.274721 0.274721 0.274721 0.269680 0.269680 0.269680 0.269680 0.269680 0.269680 0.269680 0.269680 0.269680 0.269680 0.269680 0.269680 0.269680 0.269680 0.269680 0.269680 0.280056 0.280056 0.280056 0.280056 0.280056 0.280056 0.280056 0.260378 0.260378 0.260378 0.260378 0.260378 0.260378 0.260378 0.260378 0.269680 0.269680 0.269680 0.269680 0.269680 0.269680 0.269680 0.264906 0.264906 0.264906 0.264906 0.264906 0.264906 0.264906 0.264906 0.264906 0.264906 0.264906 0.264906 0.264906 0.264906 0.260378 0.260378 0.260378 0.260378 0.260378 0.260378 0.260378 0.260378 0.260378 0.260378 0.260378 0.260378
