# Output from CTFFind version 4.1.9, run on 2019-11-03 19:41:40
# Input file: stack11_bm3d_averaged_1_4.75_0_1500_half.mrc ; Number of micrographs: 1
# Pixel size: 3.000 Angstroms ; acceleration voltage: 300.0 keV ; spherical aberration: 0.00 mm ; amplitude contrast: 0.07
# Box size: 512 pixels ; min. res.: 30.0 Angstroms ; max. res.: 5.0 Angstroms ; min. def.: 5000.0 um; max. def. 50000.0 um; num. frames averaged: 1
# 6 lines per micrograph: #1 - spatial frequency (1/Angstroms); #2 - 1D rotational average of spectrum (assuming no astigmatism); #3 - 1D rotational average of spectrum; #4 - CTF fit; #5 - cross-correlation between spectrum and CTF fit; #6 - 2sigma of expected cross correlation of noise
0.000000 0.000651 0.001302 0.001953 0.002604 0.003255 0.003906 0.004557 0.005208 0.005859 0.006510 0.007161 0.007812 0.008464 0.009115 0.009766 0.010417 0.011068 0.011719 0.012370 0.013021 0.013672 0.014323 0.014974 0.015625 0.016276 0.016927 0.017578 0.018229 0.018880 0.019531 0.020182 0.020833 0.021484 0.022135 0.022786 0.023438 0.024089 0.024740 0.025391 0.026042 0.026693 0.027344 0.027995 0.028646 0.029297 0.029948 0.030599 0.031250 0.031901 0.032552 0.033203 0.033854 0.034505 0.035156 0.035807 0.036458 0.037109 0.037760 0.038411 0.039062 0.039714 0.040365 0.041016 0.041667 0.042318 0.042969 0.043620 0.044271 0.044922 0.045573 0.046224 0.046875 0.047526 0.048177 0.048828 0.049479 0.050130 0.050781 0.051432 0.052083 0.052734 0.053385 0.054036 0.054688 0.055339 0.055990 0.056641 0.057292 0.057943 0.058594 0.059245 0.059896 0.060547 0.061198 0.061849 0.062500 0.063151 0.063802 0.064453 0.065104 0.065755 0.066406 0.067057 0.067708 0.068359 0.069010 0.069661 0.070312 0.070964 0.071615 0.072266 0.072917 0.073568 0.074219 0.074870 0.075521 0.076172 0.076823 0.077474 0.078125 0.078776 0.079427 0.080078 0.080729 0.081380 0.082031 0.082682 0.083333 0.083984 0.084635 0.085286 0.085938 0.086589 0.087240 0.087891 0.088542 0.089193 0.089844 0.090495 0.091146 0.091797 0.092448 0.093099 0.093750 0.094401 0.095052 0.095703 0.096354 0.097005 0.097656 0.098307 0.098958 0.099609 0.100260 0.100911 0.101562 0.102214 0.102865 0.103516 0.104167 0.104818 0.105469 0.106120 0.106771 0.107422 0.108073 0.108724 0.109375 0.110026 0.110677 0.111328 0.111979 0.112630 0.113281 0.113932 0.114583 0.115234 0.115885 0.116536 0.117188 0.117839 0.118490 0.119141 0.119792 0.120443 0.121094 0.121745 0.122396 0.123047 0.123698 0.124349 0.125000 0.125651 0.126302 0.126953 0.127604 0.128255 0.128906 0.129557 0.130208 0.130859 0.131510 0.132161 0.132812 0.133464 0.134115 0.134766 0.135417 0.136068 0.136719 0.137370 0.138021 0.138672 0.139323 0.139974 0.140625 0.141276 0.141927 0.142578 0.143229 0.143880 0.144531 0.145182 0.145833 0.146484 0.147135 0.147786 0.148438 0.149089 0.149740 0.150391 0.151042 0.151693 0.152344 0.152995 0.153646 0.154297 0.154948 0.155599 0.156250 0.156901 0.157552 0.158203 0.158854 0.159505 0.160156 0.160807 0.161458 0.162109 0.162760 0.163411 0.164062 0.164714 0.165365 0.166016 0.166667 0.167318 0.167969 0.168620 0.169271 0.169922 0.170573 0.171224 0.171875 0.172526 0.173177 0.173828 0.174479 0.175130 0.175781 0.176432 0.177083 0.177734 0.178385 0.179036 0.179688 0.180339 0.180990 0.181641 0.182292 0.182943 0.183594 0.184245 0.184896 0.185547 0.186198 0.186849 0.187500 0.188151 0.188802 0.189453 0.190104 0.190755 0.191406 0.192057 0.192708 0.193359 0.194010 0.194661 0.195312 0.195964 0.196615 0.197266 0.197917 0.198568 0.199219 0.199870 0.200521 0.201172 0.201823 0.202474 0.203125 0.203776 0.204427 0.205078 0.205729 0.206380 0.207031 0.207682 0.208333 0.208984 0.209635 0.210286 0.210938 0.211589 0.212240 0.212891 0.213542 0.214193 0.214844 0.215495 0.216146 0.216797 0.217448 0.218099 0.218750 0.219401 0.220052 0.220703 0.221354 0.222005 0.222656 0.223307 0.223958 0.224609 0.225260 0.225911 0.226562 0.227214 0.227865 0.228516 0.229167 0.229818 0.230469 0.231120 0.231771 0.232422 0.233073 0.233724 0.234375 0.235026 0.235677
       0.33734        0.33734        0.33734        0.33734        0.33734        0.33734        0.33734        0.33734        0.33734        0.33734        0.33734        0.33734        0.33734        0.33734        0.33734        0.33734        0.33734        0.33734        0.33734        0.33734        0.33734        0.33734        0.33734        0.33734        0.33734        0.33734        0.33734        0.33734        0.33734        0.33734        0.33734        0.33734        0.33734        0.33734        0.33734        0.33734        0.33734        0.33734        0.33734        0.33733        0.33734        0.33734        0.33734        0.33734        0.33734        0.33734        0.33734        0.33734        0.33734        0.33734        0.33734        0.69442        0.85930        0.53390        0.10386       -0.03297       -0.39674       -0.18358       -0.28899       -0.11374       -0.05726       -0.11079       -0.05442       -0.17604       -0.21092       -0.22395       -0.31263       -0.32411       -0.45248       -0.36568       -0.43383       -0.42847       -0.40163       -0.42362       -0.46705       -0.51858       -0.56281       -0.56676       -0.53983       -0.36873       -0.34153       -0.30282       -0.28224       -0.19086       -0.17957        0.05232        0.12981        0.16077        0.25548        0.37889        0.45520        0.51995        0.58877        0.58678        0.57664        0.69599        0.80511        0.71002        0.74049        0.62871        0.56748        0.48246        0.42525        0.50908        0.39209        0.25293        0.10770        0.09657        0.07407       -0.02743        0.02289        0.03643       -0.00785        0.01841        0.01379        0.23659        0.26734        0.29310        0.42911        0.45061        0.41023        0.58261        0.62578        0.65133        0.73171        0.67964        0.64989        0.66675        0.56386        0.46755        0.41821        0.29942        0.24975        0.17312        0.13132        0.05324        0.05059        0.05502        0.09172        0.14920        0.23597        0.28486        0.40776        0.45834        0.48342        0.57772        0.60957        0.63777        0.62045        0.56183        0.45688        0.46951        0.37568        0.26233        0.20275        0.15719        0.16160        0.14523        0.14042        0.16788        0.30292        0.31520        0.39179        0.43078        0.42880        0.49154        0.55676        0.55257        0.49332        0.45350        0.40639        0.35831        0.32904        0.29490        0.24379        0.23694        0.23063        0.24271        0.21763        0.30270        0.36027        0.38754        0.43951        0.45556        0.47208        0.42421        0.40260        0.40278        0.35957        0.31443        0.27039        0.26212        0.25862        0.22764        0.27695        0.27799        0.34423        0.37505        0.41593        0.47525        0.41385        0.42648        0.43188        0.40561        0.34493        0.32216        0.29160        0.31155        0.26783        0.30867        0.30271        0.32168        0.32965        0.35341        0.31777        0.39712        0.41623        0.37841        0.34513        0.37131        0.31069        0.28885        0.29435        0.31900        0.30043        0.31295        0.33041        0.34326        0.34032        0.36762        0.36908        0.40216        0.37901        0.32954        0.33675        0.29399        0.28091        0.32017        0.31502        0.32475        0.33290        0.32992        0.37266        0.32728        0.32761        0.32846        0.33379        0.29932        0.30768        0.27222        0.29845        0.32048        0.30154        0.32241        0.34400        0.35092        0.28660        0.32293        0.28974        0.30124        0.27980        0.24014        0.29531        0.29656        0.34122        0.33302        0.33221        0.32267        0.34540        0.30622        0.34250        0.31806        0.30552        0.27747        0.32533        0.31129        0.35568        0.32292        0.33377        0.34159        0.29446        0.27428        0.30958        0.24542        0.22353        0.33221        0.31757        0.34780        0.33482        0.35014        0.32137        0.34009        0.34246        0.26239        0.24856        0.30757        0.30291        0.30722        0.31992        0.33864        0.33346        0.30003        0.29148        0.34054        0.31729        0.29981        0.27722        0.32015        0.34675        0.39408        0.33589        0.29971        0.27638        0.30425        0.27632        0.29160        0.26748        0.25275        0.31081        0.33255        0.34374        0.34803        0.31510        0.28353        0.29236        0.25966        0.26490        0.24764        0.31691        0.27883        0.22926        0.31614        0.30936        0.26571        0.28801        0.20897        0.21430        0.25319        0.18704        0.25271        0.31814        0.23637        0.21739        0.31158        0.32308        0.32221        0.31816        0.25619        0.22668        0.18397        0.21589        0.19077        0.21374        0.21928        0.26146        0.31114        0.28830        0.21938        0.11257        0.06245       -0.01504       -0.10137       -0.61810
2.723488 2.694644 2.665958 2.637429 2.609058 2.580844 2.552788 2.524890 2.497149 2.469565 2.442140 2.414872 2.387761 2.360808 2.334013 2.307375 2.280895 2.254572 2.228407 2.202399 2.176549 2.150857 2.125322 2.099945 2.074726 2.049664 2.024759 2.000012 1.975423 1.950991 1.926717 1.902601 1.878642 1.854840 1.831197 1.807711 1.784382 1.761211 1.738198 1.715342 1.692643 1.670103 1.647720 1.625494 1.603426 1.581516 1.559763 1.538168 1.516730 1.495450 1.474328 1.690153 2.106914 1.670088 1.169192 1.035234 0.441317 0.840145 0.559386 0.840852 0.801467 0.811286 0.754364 0.738599 0.588600 0.548277 0.495242 0.428150 0.241631 0.369464 0.201780 0.325110 0.223527 0.200924 0.173965 0.038621 0.017489 0.016107 -0.067107 0.128320 0.226486 0.186885 0.171324 0.329487 0.184442 0.510944 0.615289 0.613714 0.631443 0.869645 0.826257 0.935830 0.915427 1.013811 0.979117 1.071559 1.156508 1.039258 1.146068 0.910115 0.923060 0.787283 0.646634 0.793214 0.697498 0.477895 0.328018 0.249304 0.257597 0.147785 0.122429 0.157017 0.103761 0.127587 0.072169 0.254358 0.360156 0.343014 0.470247 0.545981 0.420129 0.581042 0.720422 0.673859 0.738893 0.701669 0.718426 0.657462 0.598246 0.508597 0.378985 0.277286 0.220477 0.082383 0.120330 -0.087002 -0.044600 -0.060159 -0.071917 -0.019004 0.140507 0.069029 0.242272 0.304725 0.338537 0.394782 0.502068 0.477677 0.482096 0.492790 0.308210 0.292502 0.283930 0.087078 0.043735 -0.066333 -0.008810 -0.059768 -0.089659 -0.085312 0.037131 0.081030 0.122657 0.211361 0.228962 0.243963 0.290373 0.434736 0.391771 0.266791 0.240651 0.221020 0.151561 0.143802 0.113589 0.002869 0.019864 0.065383 -0.000263 0.061220 0.144554 0.147749 0.234635 0.246664 0.285816 0.181183 0.216377 0.145730 0.168511 0.116915 0.050018 -0.006238 0.012615 -0.001758 -0.043227 0.061035 0.024262 0.124747 0.151097 0.190841 0.192844 0.157316 0.159373 0.177835 0.127584 0.059163 0.001132 0.052970 0.025471 -0.018239 0.034925 0.039601 0.057548 0.050833 0.062675 0.074981 0.129714 0.150708 0.055787 0.056172 0.055405 0.015635 -0.024094 0.015455 0.021523 0.005943 0.015394 0.044482 0.059083 0.053765 0.090291 0.061499 0.141618 0.060096 0.027787 0.038183 -0.033510 0.003109 0.042446 0.003478 0.036504 0.050363 0.022260 0.114341 0.031942 0.006833 0.055116 0.004416 0.013605 0.004932 -0.022286 0.027573 0.007803 0.006213 0.056229 0.056634 0.051917 0.033425 0.035692 0.033930 0.024333 -0.013760 -0.024631 0.032107 0.052841 0.082740 0.086105 0.058792 0.080536 0.116760 0.057306 0.115506 0.088826 0.037375 0.038251 0.102553 0.074504 0.116845 0.094294 0.071602 0.133710 0.058560 0.020328 0.096952 -0.026911 -0.003968 0.110442 0.058777 0.150072 0.088823 0.111647 0.048725 0.093413 0.093335 -0.012100 -0.028890 0.060123 0.068632 0.038927 0.045620 0.107790 0.068821 0.002058 0.049370 0.070119 0.056848 0.047961 -0.019660 0.074450 0.082468 0.134945 0.026255 0.012229 -0.021277 0.012702 -0.020736 0.003506 -0.043808 -0.033537 0.011763 0.048268 0.016721 0.036516 -0.009402 -0.037111 -0.043517 -0.030107 -0.071703 -0.063505 -0.005590 0.024099 -0.095697 0.016617 -0.029275 -0.064934 0.006224 -0.130558 -0.077455 -0.079412 -0.179152 -0.035536 0.046933 -0.046171 -0.151960 0.047966 0.077737 -0.032279 0.072724 -0.045338 0.246353 0.149831 0.226357 0.243522 0.244811 0.233956 0.294476 0.300011 0.328739 0.199418 0.202647 0.088760 -0.020695 -0.668991
0.072396 0.072899 0.074407 0.076919 0.080436 0.084956 0.090479 0.097001 0.104522 0.113039 0.122548 0.133044 0.144523 0.156979 0.170402 0.184785 0.200116 0.216382 0.233569 0.251658 0.270631 0.290463 0.311130 0.332601 0.354844 0.377821 0.401491 0.425808 0.450721 0.476174 0.502107 0.528452 0.555136 0.582080 0.609199 0.636401 0.663589 0.690656 0.717491 0.743975 0.769982 0.795380 0.820031 0.843787 0.866500 0.888011 0.908158 0.926774 0.943689 0.958728 0.971715 0.982472 0.990821 0.996584 0.999587 0.999657 0.996630 0.990346 0.980654 0.967414 0.950499 0.929796 0.905208 0.876658 0.844091 0.807473 0.766796 0.722082 0.673380 0.620772 0.564374 0.504338 0.440852 0.374142 0.304476 0.232159 0.157538 0.081000 0.002973 0.076076 0.155646 0.235196 0.314156 0.391925 0.467876 0.541363 0.611723 0.678283 0.740369 0.797308 0.848441 0.893127 0.930757 0.960755 0.982596 0.995808 0.999989 0.994809 0.980025 0.955487 0.921146 0.877065 0.823420 0.760509 0.688758 0.608719 0.521073 0.426628 0.326320 0.221201 0.112438 0.001299 0.110858 0.222600 0.332433 0.438825 0.540228 0.635096 0.721916 0.799227 0.865655 0.919935 0.960940 0.987709 0.999473 0.995676 0.976002 0.940388 0.889046 0.822468 0.741436 0.647021 0.540580 0.423744 0.298399 0.166665 0.030866 0.106511 0.242853 0.375472 0.501657 0.618734 0.724117 0.815380 0.890310 0.946970 0.983760 0.999462 0.993295 0.964949 0.914619 0.843017 0.751389 0.641501 0.515623 0.376492 0.227269 0.071468 0.087111 0.244477 0.396542 0.539229 0.668585 0.780893 0.872792 0.941381 0.984327 0.999955 0.987327 0.946298 0.877556 0.782635 0.663902 0.524523 0.368390 0.200033 0.024495 0.152803 0.326232 0.490124 0.638969 0.767601 0.871392 0.946426 0.989670 0.999114 0.973875 0.914283 0.821903 0.699536 0.551150 0.381787 0.197404 0.004681 0.189210 0.376858 0.550910 0.704356 0.830822 0.924857 0.982183 0.999915 0.976732 0.912987 0.810750 0.673775 0.507409 0.318393 0.114633 0.095126 0.301659 0.495670 0.668198 0.811066 0.917269 0.981352 0.999717 0.970859 0.895504 0.776648 0.619483 0.431209 0.220740 0.001693 0.225024 0.437891 0.629215 0.788792 0.907859 0.979600 0.999580 0.966050 0.880131 0.745837 0.569944 0.361686 0.132315 0.105478 0.338254 0.552579 0.735806 0.876849 0.966874 0.999906 0.973267 0.887829 0.748075 0.561915 0.340298 0.096609 0.154105 0.396050 0.613675 0.792694 0.921034 0.989715 0.993511 0.931414 0.806810 0.627375 0.404671 0.153442 0.109308 0.365448 0.596958 0.787231 0.922271 0.991785 0.990026 0.916326 0.775284 0.576564 0.334300 0.066148 0.207948 0.467231 0.691702 0.863688 0.969269 0.999483 0.951143 0.827246 0.636888 0.394672 0.119672 0.166030 0.439075 0.676754 0.858905 0.969680 0.998991 0.943510 0.807117 0.600742 0.341582 0.051736 0.243612 0.518370 0.747842 0.910989 0.992415 0.983907 0.885355 0.704952 0.458622 0.168714 0.137960 0.432564 0.686946 0.876347 0.981888 0.992524 0.906309 0.730796 0.482491 0.185420 0.131127 0.435435 0.696525 0.887353 0.987672 0.986277 0.882374 0.685887 0.416647 0.102497 0.223505 0.526521 0.773664 0.937617 0.999736 0.952286 0.799526 0.557495 0.252457 0.081848 0.407856 0.688398 0.890961 0.991543 0.977603 0.849769 0.622032 0.320364 0.020111 0.359143 0.656065 0.874715 0.987905 0.980936 0.853644 0.620719 0.310168 0.039921 0.385952 0.684235 0.896531 0.995045 0.966197 0.812656 0.553321 0.221137 0.140921
1.000000 1.000000 1.000000 1.000000 1.000000 1.000000 1.000000 1.000000 1.000000 1.000000 1.000000 1.000000 1.000000 1.000000 1.000000 1.000000 1.000000 1.000000 1.000000 1.000000 1.000000 1.000000 1.000000 1.000000 1.000000 1.000000 1.000000 1.000000 1.000000 1.000000 1.000000 1.000000 1.000000 1.000000 1.000000 1.000000 1.000000 1.000000 1.000000 1.000000 1.000000 1.000000 1.000000 1.000000 1.000000 1.000000 1.000000 1.000000 1.000000 1.000000 1.000000 1.000000 0.919977 0.919977 0.919977 0.912095 0.912095 0.912095 0.912095 0.912095 0.912095 0.912095 0.912095 0.912095 0.912095 0.912095 0.912095 0.912095 0.912095 0.912095 0.912095 0.912095 0.912095 0.912095 0.912095 0.912095 0.912095 0.912095 0.912095 0.912095 0.912095 0.912095 0.912095 0.912095 0.912095 0.912095 0.912095 0.912095 0.912095 0.912095 0.912095 0.912095 0.912095 0.912095 0.912095 0.912095 0.941303 0.942757 0.950917 0.950571 0.949968 0.947867 0.946699 0.946335 0.946227 0.946553 0.947259 0.948222 0.954487 0.955716 0.960168 0.961824 0.962569 0.963209 0.963856 0.963436 0.954705 0.954504 0.953142 0.952553 0.955080 0.954100 0.953287 0.954254 0.954128 0.954907 0.954808 0.954094 0.952988 0.951870 0.950910 0.950483 0.950266 0.951001 0.951419 0.952907 0.956227 0.956804 0.956931 0.957086 0.957186 0.958482 0.957379 0.956901 0.952942 0.953149 0.952722 0.952978 0.956515 0.956470 0.957029 0.957591 0.959175 0.959463 0.951541 0.949457 0.940322 0.937818 0.933958 0.928198 0.923720 0.925556 0.926930 0.927720 0.928201 0.923523 0.923321 0.920801 0.918634 0.921224 0.920591 0.921396 0.922779 0.921373 0.920469 0.919651 0.917716 0.909690 0.897426 0.896433 0.896621 0.901309 0.902551 0.901547 0.903953 0.892250 0.875994 0.859630 0.861585 0.865063 0.855997 0.853392 0.853934 0.854782 0.858364 0.850995 0.848235 0.844155 0.834467 0.826674 0.820307 0.813079 0.816189 0.811539 0.801849 0.799636 0.809052 0.802585 0.817225 0.822198 0.821039 0.820052 0.816723 0.810857 0.787908 0.786725 0.775330 0.754392 0.754861 0.753170 0.751826 0.749127 0.755560 0.745379 0.742528 0.726706 0.726474 0.730108 0.732709 0.731362 0.726660 0.730214 0.734979 0.717079 0.705662 0.694003 0.698231 0.698746 0.699861 0.698156 0.674426 0.643494 0.622277 0.641839 0.645861 0.615686 0.639888 0.653544 0.633667 0.630682 0.621742 0.624043 0.616840 0.620419 0.620533 0.621928 0.624826 0.639784 0.628274 0.623739 0.631774 0.631609 0.643511 0.640180 0.642252 0.613342 0.613299 0.635742 0.639337 0.624353 0.639596 0.626755 0.639601 0.674963 0.674845 0.644619 0.638843 0.618830 0.578402 0.568436 0.563544 0.574147 0.605613 0.591135 0.559550 0.534441 0.538785 0.554012 0.560662 0.563003 0.547641 0.555268 0.546984 0.523820 0.530956 0.542050 0.542230 0.530338 0.517020 0.520122 0.524199 0.544321 0.535092 0.493172 0.509852 0.507073 0.499936 0.444431 0.456423 0.440295 0.428327 0.384334 0.394432 0.405055 0.392347 0.316042 0.296748 0.297032 0.297175 0.295579 0.278806 0.254053 0.245113 0.217656 0.217925 0.205502 0.182111 0.178005 0.163000 0.153007 0.155739 0.122070 0.169477 0.231382 0.232579 0.232579 0.232579 0.232579 0.232579 0.232579 0.224722 0.224722 0.224722 0.224722 0.224722 0.224722 0.224722 0.224722 0.224722 0.247779 0.247779 0.247779 0.247779 0.247779 0.247779 0.247779 0.247779 0.247779 0.247779 0.247779 0.247779 0.247779 0.247779
0.000000 0.000000 0.000000 0.000000 0.000000 0.000000 0.000000 0.000000 0.000000 0.000000 0.000000 0.000000 0.000000 0.000000 0.000000 0.000000 0.000000 0.000000 0.000000 0.000000 0.000000 0.000000 0.000000 0.000000 0.000000 7.000000 4.000000 0.000000 0.000000 0.000000 0.000000 0.000000 0.000000 0.000000 0.000000 0.000000 0.000000 0.000000 0.000000 0.000000 0.000000 0.000000 0.000000 0.000000 0.000000 0.000000 0.000000 0.000000 0.000000 0.000000 0.000000 0.000000 0.180334 0.180334 0.180334 0.199007 0.199007 0.199007 0.199007 0.199007 0.199007 0.199007 0.199007 0.199007 0.199007 0.199007 0.199007 0.199007 0.199007 0.199007 0.199007 0.199007 0.199007 0.199007 0.199007 0.199007 0.199007 0.199007 0.199007 0.199007 0.199007 0.199007 0.199007 0.199007 0.199007 0.199007 0.199007 0.199007 0.199007 0.199007 0.199007 0.199007 0.199007 0.199007 0.199007 0.199007 0.225018 0.225018 0.225018 0.225018 0.225018 0.225018 0.225018 0.225018 0.225018 0.225018 0.225018 0.225018 0.225018 0.225018 0.225018 0.225018 0.225018 0.225018 0.225018 0.225018 0.225018 0.225018 0.225018 0.225018 0.225018 0.225018 0.225018 0.225018 0.225018 0.244339 0.244339 0.244339 0.244339 0.244339 0.244339 0.244339 0.244339 0.244339 0.244339 0.244339 0.244339 0.244339 0.244339 0.244339 0.244339 0.244339 0.244339 0.244339 0.244339 0.244339 0.244339 0.244339 0.251976 0.251976 0.251976 0.251976 0.251976 0.251976 0.251976 0.251976 0.251976 0.251976 0.251976 0.251976 0.251976 0.251976 0.251976 0.251976 0.251976 0.251976 0.251976 0.251976 0.264906 0.264906 0.264906 0.264906 0.264906 0.264906 0.264906 0.264906 0.264906 0.264906 0.264906 0.264906 0.264906 0.264906 0.264906 0.264906 0.264906 0.264906 0.264906 0.264906 0.264906 0.264906 0.264906 0.264906 0.264906 0.264906 0.264906 0.264906 0.264906 0.264906 0.264906 0.264906 0.264906 0.264906 0.264906 0.264906 0.264906 0.264906 0.264906 0.264906 0.264906 0.264906 0.264906 0.264906 0.264906 0.264906 0.264906 0.264906 0.264906 0.264906 0.264906 0.264906 0.264906 0.264906 0.264906 0.264906 0.264906 0.264906 0.264906 0.264906 0.264906 0.264906 0.256074 0.256074 0.256074 0.256074 0.256074 0.256074 0.256074 0.256074 0.256074 0.256074 0.256074 0.256074 0.256074 0.256074 0.269680 0.269680 0.269680 0.269680 0.269680 0.269680 0.269680 0.269680 0.269680 0.269680 0.269680 0.269680 0.264906 0.264906 0.264906 0.264906 0.264906 0.264906 0.264906 0.264906 0.264906 0.264906 0.264906 0.264906 0.269680 0.269680 0.269680 0.269680 0.269680 0.269680 0.269680 0.269680 0.269680 0.269680 0.269680 0.264906 0.264906 0.264906 0.264906 0.264906 0.264906 0.264906 0.264906 0.264906 0.264906 0.264906 0.256074 0.256074 0.256074 0.256074 0.256074 0.256074 0.256074 0.256074 0.256074 0.256074 0.256074 0.264906 0.264906 0.264906 0.264906 0.264906 0.264906 0.264906 0.264906 0.264906 0.264906 0.260378 0.260378 0.260378 0.260378 0.260378 0.260378 0.260378 0.260378 0.260378 0.260378 0.256074 0.256074 0.256074 0.256074 0.256074 0.256074 0.256074 0.256074 0.256074 0.256074 0.260378 0.260378 0.260378 0.260378 0.260378 0.260378 0.260378 0.260378 0.260378 0.256074 0.256074 0.256074 0.256074 0.256074 0.256074 0.256074 0.256074 0.256074 0.251976 0.251976 0.251976 0.251976 0.251976 0.251976 0.251976 0.251976 0.251976 0.251976 0.251976 0.251976 0.251976 0.251976
