# Output from CTFFind version 4.1.9, run on 2019-11-02 17:49:42
# Input file: stack16_bm3d_averaged_1_0.75_0_2500_half.mrc ; Number of micrographs: 1
# Pixel size: 3.000 Angstroms ; acceleration voltage: 300.0 keV ; spherical aberration: 0.00 mm ; amplitude contrast: 0.07
# Box size: 512 pixels ; min. res.: 30.0 Angstroms ; max. res.: 5.0 Angstroms ; min. def.: 5000.0 um; max. def. 50000.0 um; num. frames averaged: 1
# 6 lines per micrograph: #1 - spatial frequency (1/Angstroms); #2 - 1D rotational average of spectrum (assuming no astigmatism); #3 - 1D rotational average of spectrum; #4 - CTF fit; #5 - cross-correlation between spectrum and CTF fit; #6 - 2sigma of expected cross correlation of noise
0.000000 0.000651 0.001302 0.001953 0.002604 0.003255 0.003906 0.004557 0.005208 0.005859 0.006510 0.007161 0.007812 0.008464 0.009115 0.009766 0.010417 0.011068 0.011719 0.012370 0.013021 0.013672 0.014323 0.014974 0.015625 0.016276 0.016927 0.017578 0.018229 0.018880 0.019531 0.020182 0.020833 0.021484 0.022135 0.022786 0.023438 0.024089 0.024740 0.025391 0.026042 0.026693 0.027344 0.027995 0.028646 0.029297 0.029948 0.030599 0.031250 0.031901 0.032552 0.033203 0.033854 0.034505 0.035156 0.035807 0.036458 0.037109 0.037760 0.038411 0.039062 0.039714 0.040365 0.041016 0.041667 0.042318 0.042969 0.043620 0.044271 0.044922 0.045573 0.046224 0.046875 0.047526 0.048177 0.048828 0.049479 0.050130 0.050781 0.051432 0.052083 0.052734 0.053385 0.054036 0.054688 0.055339 0.055990 0.056641 0.057292 0.057943 0.058594 0.059245 0.059896 0.060547 0.061198 0.061849 0.062500 0.063151 0.063802 0.064453 0.065104 0.065755 0.066406 0.067057 0.067708 0.068359 0.069010 0.069661 0.070312 0.070964 0.071615 0.072266 0.072917 0.073568 0.074219 0.074870 0.075521 0.076172 0.076823 0.077474 0.078125 0.078776 0.079427 0.080078 0.080729 0.081380 0.082031 0.082682 0.083333 0.083984 0.084635 0.085286 0.085938 0.086589 0.087240 0.087891 0.088542 0.089193 0.089844 0.090495 0.091146 0.091797 0.092448 0.093099 0.093750 0.094401 0.095052 0.095703 0.096354 0.097005 0.097656 0.098307 0.098958 0.099609 0.100260 0.100911 0.101562 0.102214 0.102865 0.103516 0.104167 0.104818 0.105469 0.106120 0.106771 0.107422 0.108073 0.108724 0.109375 0.110026 0.110677 0.111328 0.111979 0.112630 0.113281 0.113932 0.114583 0.115234 0.115885 0.116536 0.117188 0.117839 0.118490 0.119141 0.119792 0.120443 0.121094 0.121745 0.122396 0.123047 0.123698 0.124349 0.125000 0.125651 0.126302 0.126953 0.127604 0.128255 0.128906 0.129557 0.130208 0.130859 0.131510 0.132161 0.132812 0.133464 0.134115 0.134766 0.135417 0.136068 0.136719 0.137370 0.138021 0.138672 0.139323 0.139974 0.140625 0.141276 0.141927 0.142578 0.143229 0.143880 0.144531 0.145182 0.145833 0.146484 0.147135 0.147786 0.148438 0.149089 0.149740 0.150391 0.151042 0.151693 0.152344 0.152995 0.153646 0.154297 0.154948 0.155599 0.156250 0.156901 0.157552 0.158203 0.158854 0.159505 0.160156 0.160807 0.161458 0.162109 0.162760 0.163411 0.164062 0.164714 0.165365 0.166016 0.166667 0.167318 0.167969 0.168620 0.169271 0.169922 0.170573 0.171224 0.171875 0.172526 0.173177 0.173828 0.174479 0.175130 0.175781 0.176432 0.177083 0.177734 0.178385 0.179036 0.179688 0.180339 0.180990 0.181641 0.182292 0.182943 0.183594 0.184245 0.184896 0.185547 0.186198 0.186849 0.187500 0.188151 0.188802 0.189453 0.190104 0.190755 0.191406 0.192057 0.192708 0.193359 0.194010 0.194661 0.195312 0.195964 0.196615 0.197266 0.197917 0.198568 0.199219 0.199870 0.200521 0.201172 0.201823 0.202474 0.203125 0.203776 0.204427 0.205078 0.205729 0.206380 0.207031 0.207682 0.208333 0.208984 0.209635 0.210286 0.210938 0.211589 0.212240 0.212891 0.213542 0.214193 0.214844 0.215495 0.216146 0.216797 0.217448 0.218099 0.218750 0.219401 0.220052 0.220703 0.221354 0.222005 0.222656 0.223307 0.223958 0.224609 0.225260 0.225911 0.226562 0.227214 0.227865 0.228516 0.229167 0.229818 0.230469 0.231120 0.231771 0.232422 0.233073 0.233724 0.234375 0.235026 0.235677
       0.34390        0.34390        0.34390        0.34390        0.34390        0.34390        0.34390        0.34390        0.34390        0.34390        0.34390        0.34390        0.34390        0.34390        0.34390        0.34390        0.34390        0.34390        0.34390        0.34390        0.34390        0.34390        0.34390        0.34390        0.34390        0.34390        0.34390        0.34390        0.34390        0.34390        0.34390        0.34390        0.34390        0.34390        0.34390        0.34390        0.34390        0.34390        0.34390        0.34390        0.34390        0.34390        0.34390        0.34390        0.34390        0.34390        0.34390        0.34390        0.34390        0.34390        0.34390        0.48976        0.70463        0.45659       -0.10906       -0.41394       -0.57019       -0.65949       -0.74535       -0.76127       -0.86889       -0.91302       -0.76048       -0.92459       -0.87155       -1.02432       -1.09479       -0.98847       -0.96013       -0.88328       -0.86291       -0.75124       -0.64064       -0.49913       -0.42184       -0.21786       -0.11885       -0.02368        0.20334        0.24420        0.30979        0.38715        0.44021        0.51715        0.58220        0.59776        0.59455        0.50303        0.54703        0.48663        0.39066        0.32517        0.20859        0.17523        0.10324       -0.06267       -0.11265       -0.09229        0.00946       -0.01729        0.00949        0.03040        0.21191        0.21990        0.39029        0.45825        0.56337        0.70321        0.76252        0.72829        0.70918        0.70688        0.58693        0.54469        0.40085        0.27436        0.19426        0.14421        0.06686        0.02210        0.02416        0.06226        0.08035        0.27350        0.41841        0.50445        0.58753        0.64026        0.70760        0.66219        0.65199        0.67349        0.61157        0.48038        0.28479        0.23289        0.20544        0.13155        0.04876        0.09423        0.12275        0.25027        0.34099        0.41598        0.50257        0.54175        0.66461        0.61091        0.55639        0.50763        0.36686        0.21028        0.21179        0.15298        0.11331        0.11937        0.21428        0.25569        0.36369        0.44489        0.44081        0.56898        0.51403        0.44616        0.45309        0.38650        0.32422        0.27762        0.22050        0.23818        0.21101        0.21391        0.32673        0.44952        0.48939        0.48079        0.55211        0.49690        0.45702        0.39601        0.29208        0.22452        0.23308        0.24765        0.26815        0.27070        0.32604        0.44267        0.49841        0.48823        0.45919        0.41946        0.38652        0.36276        0.25016        0.23094        0.24867        0.29516        0.35437        0.36550        0.39571        0.40848        0.44627        0.37210        0.34819        0.31365        0.30366        0.26615        0.26132        0.31419        0.34709        0.41770        0.41808        0.39952        0.39540        0.40875        0.35129        0.28815        0.29116        0.27514        0.31070        0.36079        0.36536        0.41571        0.36225        0.36724        0.39025        0.34521        0.31473        0.28104        0.29682        0.34113        0.33457        0.32777        0.37803        0.39662        0.33713        0.35357        0.29511        0.30877        0.29126        0.28251        0.30211        0.33096        0.38336        0.36806        0.34912        0.33064        0.28797        0.27792        0.29781        0.28232        0.31398        0.37018        0.39473        0.33820        0.31778        0.31330        0.29808        0.28331        0.27900        0.29929        0.34259        0.33610        0.34724        0.31931        0.34507        0.32569        0.29003        0.31503        0.32180        0.33131        0.33401        0.31865        0.31807        0.30872        0.33002        0.31680        0.33599        0.39171        0.34018        0.36169        0.32352        0.31550        0.28852        0.31112        0.29013        0.31080        0.31972        0.35382        0.36618        0.31891        0.32147        0.31325        0.29595        0.29451        0.28972        0.33677        0.34009        0.36016        0.33925        0.32717        0.25781        0.26994        0.31336        0.35286        0.31496        0.29999        0.29087        0.29090        0.32431        0.30629        0.30500        0.33370        0.34496        0.31706        0.24591        0.28665        0.28292        0.28845        0.32036        0.32266        0.34814        0.34106        0.28045        0.26520        0.29320        0.26422        0.28817        0.27469        0.24562        0.26662        0.24580        0.27822        0.27630        0.27652        0.27122        0.31449        0.32989        0.31785        0.29666        0.31531        0.24890        0.27431        0.25478        0.33605        0.34218        0.23737        0.26465        0.27979        0.25104        0.24920        0.30143        0.22974        0.14055        0.16713        0.25212        0.27985        0.23571        0.15363        0.02936       -0.40315       -0.75317
3.055732 3.017787 2.980085 2.942627 2.905413 2.868443 2.831716 2.795232 2.758992 2.722996 2.687243 2.651734 2.616469 2.581447 2.546669 2.512135 2.477844 2.443796 2.409993 2.376433 2.343116 2.310043 2.277214 2.244628 2.212286 2.180188 2.148333 2.116722 2.085354 2.054230 2.023350 1.992713 1.962320 1.932171 1.902265 1.872602 1.843184 1.814009 1.785077 1.756389 1.727945 1.699744 1.671787 1.644074 1.616604 1.589378 1.562396 1.535657 1.509161 1.482910 1.456901 1.512671 1.704588 1.614786 0.969312 0.681874 0.477744 0.433837 0.320792 0.265721 0.200314 0.022336 0.196579 0.081196 -0.005962 -0.059519 -0.196628 -0.150780 -0.090119 -0.091271 -0.098787 0.010068 0.031941 0.234926 0.151366 0.365981 0.446128 0.476846 0.716684 0.701261 0.711087 0.840693 0.824400 0.855918 0.924600 0.895391 0.943251 0.754461 0.838262 0.842637 0.621054 0.609968 0.459457 0.439570 0.388969 0.208619 0.120099 0.100805 0.205868 0.147181 0.192322 0.112282 0.316499 0.289624 0.456754 0.418361 0.581931 0.647421 0.769252 0.692302 0.664428 0.673264 0.536563 0.506930 0.372081 0.294661 0.118655 0.146924 0.002424 -0.013400 -0.037630 -0.027718 0.000392 0.036171 0.274991 0.333039 0.383161 0.400662 0.471763 0.533890 0.458188 0.507674 0.402910 0.389798 0.156279 0.065697 0.071974 0.000697 -0.122088 -0.041028 -0.108684 0.017560 0.136549 0.157396 0.254207 0.259003 0.385792 0.462705 0.357735 0.387970 0.284078 0.128137 0.049531 0.052457 0.011934 0.002193 0.005671 0.107620 0.133089 0.265746 0.237828 0.307155 0.374768 0.235112 0.242472 0.219884 0.133751 0.081047 0.055583 0.026497 0.039342 -0.012855 0.030166 0.186729 0.223228 0.250923 0.278620 0.234186 0.238398 0.149434 0.104047 -0.025002 -0.015750 -0.006084 0.018273 0.006691 0.027749 0.105955 0.185001 0.202786 0.218948 0.138921 0.145274 0.079152 0.054963 -0.056586 -0.012160 -0.008045 0.053811 0.065828 0.080977 0.151471 0.084517 0.171505 0.067709 0.053185 0.043711 0.026589 0.001320 0.011569 0.056675 0.083444 0.135619 0.142782 0.066426 0.132656 0.101248 0.019353 0.006729 0.004707 -0.006128 0.058469 0.060774 0.097921 0.099155 0.076843 0.064352 0.082325 0.033243 0.012311 -0.010675 0.012883 0.058547 0.031412 0.041295 0.084124 0.084461 0.057299 0.032775 0.006017 0.014976 -0.004685 -0.013342 0.015444 0.051992 0.102730 0.060598 0.059378 0.041026 -0.013883 -0.000558 0.013859 0.009223 0.026371 0.106641 0.053199 0.021792 0.043021 0.002787 0.024531 -0.012055 -0.006278 0.022316 0.064377 0.032477 0.045938 0.029734 0.052826 0.027665 -0.004404 0.026412 0.042797 0.036800 0.028947 0.026619 0.006524 -0.005281 0.027710 0.011551 0.043302 0.079854 0.048603 0.024827 0.016619 0.001327 -0.002045 0.006370 0.002368 0.012121 -0.000151 0.086424 0.055855 0.033580 0.038022 0.004131 0.011940 0.011693 -0.005595 0.056219 0.062013 0.088460 0.052155 0.051092 -0.026168 0.018889 0.036675 0.079936 0.025839 0.037566 0.013199 0.008609 0.048085 0.044163 0.035355 0.060263 0.077767 0.062346 -0.019338 0.017568 0.043482 0.025533 0.045138 0.075999 0.077156 0.072139 0.016724 0.003116 0.016455 -0.002797 0.017763 -0.015245 -0.031510 -0.007470 -0.047480 0.000069 -0.008094 0.003948 -0.067203 -0.001183 0.017660 0.003270 -0.028959 0.035284 -0.090707 -0.017573 -0.040721 0.035217 0.066429 -0.098167 -0.011119 0.043682 0.019508 -0.040306 0.048447 0.032021 -0.002855 -0.046282 0.077702 0.241739 0.210730 0.118127 0.028579 -0.661691
0.072396 0.073046 0.074994 0.078242 0.082786 0.088627 0.095761 0.104186 0.113898 0.124891 0.137160 0.150695 0.165488 0.181524 0.198789 0.217264 0.236928 0.257754 0.279712 0.302766 0.326875 0.351994 0.378068 0.405036 0.432831 0.461377 0.490589 0.520372 0.550623 0.581227 0.612062 0.642991 0.673868 0.704536 0.734825 0.764555 0.793535 0.821561 0.848421 0.873890 0.897736 0.919718 0.939587 0.957090 0.971966 0.983956 0.992796 0.998229 0.999997 0.997854 0.991560 0.980893 0.965644 0.945628 0.920683 0.890676 0.855508 0.815116 0.769480 0.718622 0.662619 0.601596 0.535739 0.465293 0.390565 0.311929 0.229824 0.144758 0.057306 0.031891 0.122127 0.212635 0.302594 0.391128 0.477321 0.560222 0.638853 0.712224 0.779344 0.839237 0.890954 0.933591 0.966308 0.988341 0.999029 0.997823 0.984309 0.958226 0.919478 0.868150 0.804524 0.729082 0.642522 0.545753 0.439899 0.326297 0.206482 0.082176 0.044727 0.172194 0.298073 0.420133 0.536103 0.643712 0.740737 0.825053 0.894687 0.947864 0.983066 0.999078 0.995035 0.970467 0.925332 0.860046 0.775499 0.673068 0.554606 0.422432 0.279297 0.128340 0.026972 0.182913 0.335583 0.481007 0.615235 0.734458 0.835121 0.914043 0.968525 0.996460 0.996430 0.967782 0.910696 0.826218 0.716277 0.583671 0.432018 0.265684 0.089674 0.090502 0.268996 0.439801 0.596960 0.734777 0.848038 0.932224 0.983710 0.999949 0.979619 0.922731 0.830696 0.706333 0.553822 0.378605 0.187216 0.012936 0.213839 0.407188 0.584728 0.738619 0.861794 0.948313 0.993675 0.995089 0.951679 0.864608 0.737104 0.574407 0.383590 0.173300 0.046608 0.265509 0.472515 0.657016 0.809247 0.920824 0.985246 0.998322 0.958484 0.866980 0.727916 0.548144 0.336979 0.105771 0.132681 0.364800 0.577011 0.756546 0.892234 0.975244 0.999715 0.963224 0.867069 0.716326 0.519661 0.288906 0.038400 0.215854 0.457202 0.669420 0.837839 0.950394 0.998553 0.978034 0.889255 0.737470 0.532555 0.288454 0.022305 0.246728 0.498799 0.714862 0.878133 0.975452 0.998427 0.944241 0.816056 0.622962 0.379440 0.104365 0.180390 0.451659 0.686864 0.865933 0.973063 0.998212 0.938142 0.796912 0.585754 0.322288 0.029176 0.267778 0.541867 0.767883 0.924494 0.996337 0.975642 0.863184 0.668477 0.409099 0.109259 0.202411 0.495503 0.740838 0.913382 0.994927 0.976108 0.857633 0.650497 0.375118 0.059469 0.263662 0.560046 0.797637 0.950113 0.999897 0.940341 0.776750 0.526137 0.215603 0.120445 0.444025 0.717867 0.909753 0.996402 0.966465 0.822179 0.579459 0.266342 0.080088 0.418001 0.705848 0.907502 0.996919 0.961671 0.804864 0.545140 0.214684 0.144619 0.486365 0.765631 0.944944 0.999445 0.920539 0.717460 0.416449 0.057590 0.310383 0.636629 0.875244 0.991854 0.968740 0.807773 0.530622 0.176072 0.205175 0.557676 0.829286 0.978975 0.983224 0.839962 0.569385 0.211393 0.180075 0.545030 0.826628 0.980118 0.980159 0.825275 0.538630 0.164875 0.236584 0.600905 0.868279 0.993880 0.955628 0.758358 0.433612 0.034886 0.370929 0.714714 0.936925 0.998095 0.886139 0.619047 0.242369 0.178262 0.568386 0.857901 0.993768 0.950007 0.733002 0.381007 0.042246 0.458848 0.791001 0.975612 0.976537 0.792009 0.455681 0.030871 0.401074 0.756243 0.964546 0.983773 0.808516 0.471995 0.040164 0.400908 0.762059 0.969155 0.978534 0.786630 0.431488 0.014353 0.458364 0.807120 0.986066 0.955756 0.720976 0.330558 0.132328 0.567644
1.000000 1.000000 1.000000 1.000000 1.000000 1.000000 1.000000 1.000000 1.000000 1.000000 1.000000 1.000000 1.000000 1.000000 1.000000 1.000000 1.000000 1.000000 1.000000 1.000000 1.000000 1.000000 1.000000 1.000000 1.000000 1.000000 1.000000 1.000000 1.000000 1.000000 1.000000 1.000000 1.000000 1.000000 1.000000 1.000000 1.000000 1.000000 1.000000 1.000000 1.000000 1.000000 1.000000 1.000000 1.000000 1.000000 1.000000 1.000000 1.000000 1.000000 1.000000 1.000000 0.932705 0.932705 0.932705 0.932705 0.932705 0.932705 0.932705 0.932705 0.932705 0.932705 0.932705 0.932705 0.932705 0.932705 0.932705 0.932705 0.932705 0.932705 0.932705 0.932705 0.932705 0.932705 0.932705 0.932705 0.932705 0.932705 0.932705 0.932705 0.932705 0.932705 0.932705 0.932705 0.932705 0.922165 0.923653 0.926650 0.927732 0.927691 0.927229 0.926905 0.927118 0.928834 0.931160 0.947799 0.949976 0.950549 0.951852 0.952097 0.954623 0.952863 0.952588 0.963168 0.961950 0.962641 0.955609 0.957228 0.956278 0.955326 0.955855 0.956132 0.954164 0.951979 0.950259 0.949601 0.949217 0.950991 0.951473 0.951419 0.952910 0.952858 0.952568 0.949149 0.947765 0.949245 0.951329 0.950490 0.956205 0.956020 0.964047 0.964810 0.963367 0.963281 0.963479 0.963679 0.952509 0.945445 0.939644 0.927732 0.917977 0.915973 0.918957 0.921028 0.920261 0.915948 0.914831 0.912138 0.906696 0.905823 0.906029 0.907710 0.904445 0.900840 0.884367 0.883962 0.886355 0.885396 0.883323 0.875340 0.870942 0.871597 0.874782 0.872143 0.868658 0.884689 0.879836 0.884861 0.887851 0.891160 0.895016 0.891329 0.890625 0.886914 0.883283 0.878535 0.879871 0.866050 0.869049 0.862651 0.852862 0.845135 0.848490 0.858233 0.866431 0.874626 0.873502 0.873727 0.872872 0.864099 0.865380 0.858412 0.859455 0.864897 0.871245 0.867033 0.864148 0.868260 0.866262 0.869418 0.871070 0.867363 0.865604 0.856062 0.855948 0.858657 0.875771 0.875447 0.864625 0.859956 0.850868 0.857015 0.860019 0.859525 0.861275 0.851440 0.852575 0.842483 0.832356 0.834121 0.838748 0.833948 0.835992 0.833530 0.836860 0.839121 0.837261 0.831998 0.830733 0.834990 0.810566 0.818420 0.821812 0.818134 0.822179 0.814229 0.808136 0.803136 0.802519 0.798500 0.811246 0.809377 0.777539 0.764255 0.772228 0.756865 0.748225 0.743127 0.743536 0.706293 0.683897 0.658009 0.652418 0.643804 0.644223 0.643024 0.633045 0.613969 0.600251 0.602863 0.619652 0.619442 0.588346 0.588088 0.581767 0.576271 0.571417 0.573250 0.571639 0.575953 0.580299 0.547159 0.542778 0.548181 0.522019 0.522748 0.521768 0.511866 0.482212 0.487691 0.487051 0.505143 0.521399 0.491504 0.490049 0.497390 0.510591 0.522912 0.522908 0.509345 0.492960 0.497894 0.474304 0.457509 0.474396 0.491374 0.484771 0.500229 0.489400 0.516481 0.510332 0.501744 0.527322 0.543840 0.541334 0.524265 0.537650 0.517282 0.520583 0.500804 0.462659 0.474236 0.463205 0.414257 0.401570 0.417402 0.403003 0.401042 0.374737 0.377723 0.354190 0.320625 0.331435 0.325606 0.292044 0.254465 0.256606 0.258736 0.227144 0.200070 0.220346 0.170930 0.164101 0.181709 0.191035 0.195622 0.183195 0.205638 0.205638 0.205638 0.205638 0.205638 0.205638 0.205638 0.205638 0.205638 0.205638 0.205638 0.205638 0.205638 0.205638 0.230968 0.230968 0.230968 0.230968 0.230968 0.230968 0.230968 0.230968 0.230968 0.230968 0.230968 0.230968
0.000000 0.000000 0.000000 0.000000 0.000000 0.000000 0.000000 0.000000 0.000000 0.000000 0.000000 0.000000 0.000000 0.000000 0.000000 0.000000 0.000000 0.000000 0.000000 0.000000 0.000000 0.000000 0.000000 0.000000 0.000000 7.000000 4.000000 0.000000 0.000000 0.000000 0.000000 0.000000 0.000000 0.000000 0.000000 0.000000 0.000000 0.000000 0.000000 0.000000 0.000000 0.000000 0.000000 0.000000 0.000000 0.000000 0.000000 0.000000 0.000000 0.000000 0.000000 0.000000 0.209657 0.209657 0.209657 0.209657 0.209657 0.209657 0.209657 0.209657 0.209657 0.209657 0.209657 0.209657 0.209657 0.209657 0.209657 0.209657 0.209657 0.209657 0.209657 0.209657 0.209657 0.209657 0.209657 0.209657 0.209657 0.209657 0.209657 0.209657 0.209657 0.209657 0.209657 0.209657 0.209657 0.244339 0.244339 0.244339 0.244339 0.244339 0.244339 0.244339 0.244339 0.244339 0.244339 0.244339 0.244339 0.244339 0.244339 0.244339 0.244339 0.244339 0.244339 0.244339 0.244339 0.244339 0.244339 0.244339 0.244339 0.244339 0.260378 0.260378 0.260378 0.260378 0.260378 0.260378 0.260378 0.260378 0.260378 0.260378 0.260378 0.260378 0.260378 0.260378 0.260378 0.260378 0.260378 0.260378 0.260378 0.260378 0.269680 0.269680 0.269680 0.269680 0.269680 0.269680 0.269680 0.269680 0.269680 0.269680 0.269680 0.269680 0.269680 0.269680 0.269680 0.269680 0.269680 0.269680 0.269680 0.269680 0.269680 0.269680 0.269680 0.269680 0.269680 0.269680 0.269680 0.269680 0.269680 0.269680 0.269680 0.269680 0.269680 0.280056 0.280056 0.280056 0.280056 0.280056 0.280056 0.280056 0.280056 0.280056 0.280056 0.280056 0.280056 0.280056 0.280056 0.280056 0.280056 0.280056 0.280056 0.280056 0.280056 0.280056 0.280056 0.280056 0.280056 0.280056 0.280056 0.280056 0.274721 0.274721 0.274721 0.274721 0.274721 0.274721 0.274721 0.274721 0.274721 0.274721 0.274721 0.274721 0.274721 0.285714 0.285714 0.285714 0.285714 0.285714 0.285714 0.285714 0.285714 0.285714 0.285714 0.285714 0.280056 0.280056 0.280056 0.280056 0.280056 0.280056 0.280056 0.280056 0.280056 0.280056 0.280056 0.274721 0.274721 0.274721 0.274721 0.274721 0.274721 0.274721 0.274721 0.274721 0.274721 0.274721 0.280056 0.280056 0.280056 0.280056 0.280056 0.280056 0.280056 0.280056 0.280056 0.280056 0.285714 0.285714 0.285714 0.285714 0.285714 0.285714 0.285714 0.285714 0.285714 0.269680 0.269680 0.269680 0.269680 0.269680 0.269680 0.269680 0.269680 0.269680 0.269680 0.274721 0.274721 0.274721 0.274721 0.274721 0.274721 0.274721 0.274721 0.274721 0.285714 0.285714 0.285714 0.285714 0.285714 0.285714 0.285714 0.285714 0.264906 0.264906 0.264906 0.264906 0.264906 0.264906 0.264906 0.264906 0.264906 0.274721 0.274721 0.274721 0.274721 0.274721 0.274721 0.274721 0.274721 0.269680 0.269680 0.269680 0.269680 0.269680 0.269680 0.269680 0.269680 0.269680 0.269680 0.269680 0.269680 0.269680 0.269680 0.269680 0.269680 0.280056 0.280056 0.280056 0.280056 0.280056 0.280056 0.280056 0.260378 0.260378 0.260378 0.260378 0.260378 0.260378 0.260378 0.260378 0.269680 0.269680 0.269680 0.269680 0.269680 0.269680 0.269680 0.264906 0.264906 0.264906 0.264906 0.264906 0.264906 0.264906 0.264906 0.264906 0.264906 0.264906 0.264906 0.264906 0.264906 0.260378 0.260378 0.260378 0.260378 0.260378 0.260378 0.260378 0.260378 0.260378 0.260378 0.260378 0.260378
