# Output from CTFFind version 4.1.9, run on 2019-11-03 20:04:07
# Input file: stack11_bm3d_averaged_1_6.5_0_250_half.mrc ; Number of micrographs: 1
# Pixel size: 3.000 Angstroms ; acceleration voltage: 300.0 keV ; spherical aberration: 0.00 mm ; amplitude contrast: 0.07
# Box size: 512 pixels ; min. res.: 30.0 Angstroms ; max. res.: 5.0 Angstroms ; min. def.: 5000.0 um; max. def. 50000.0 um; num. frames averaged: 1
# 6 lines per micrograph: #1 - spatial frequency (1/Angstroms); #2 - 1D rotational average of spectrum (assuming no astigmatism); #3 - 1D rotational average of spectrum; #4 - CTF fit; #5 - cross-correlation between spectrum and CTF fit; #6 - 2sigma of expected cross correlation of noise
0.000000 0.000651 0.001302 0.001953 0.002604 0.003255 0.003906 0.004557 0.005208 0.005859 0.006510 0.007161 0.007812 0.008464 0.009115 0.009766 0.010417 0.011068 0.011719 0.012370 0.013021 0.013672 0.014323 0.014974 0.015625 0.016276 0.016927 0.017578 0.018229 0.018880 0.019531 0.020182 0.020833 0.021484 0.022135 0.022786 0.023438 0.024089 0.024740 0.025391 0.026042 0.026693 0.027344 0.027995 0.028646 0.029297 0.029948 0.030599 0.031250 0.031901 0.032552 0.033203 0.033854 0.034505 0.035156 0.035807 0.036458 0.037109 0.037760 0.038411 0.039062 0.039714 0.040365 0.041016 0.041667 0.042318 0.042969 0.043620 0.044271 0.044922 0.045573 0.046224 0.046875 0.047526 0.048177 0.048828 0.049479 0.050130 0.050781 0.051432 0.052083 0.052734 0.053385 0.054036 0.054688 0.055339 0.055990 0.056641 0.057292 0.057943 0.058594 0.059245 0.059896 0.060547 0.061198 0.061849 0.062500 0.063151 0.063802 0.064453 0.065104 0.065755 0.066406 0.067057 0.067708 0.068359 0.069010 0.069661 0.070312 0.070964 0.071615 0.072266 0.072917 0.073568 0.074219 0.074870 0.075521 0.076172 0.076823 0.077474 0.078125 0.078776 0.079427 0.080078 0.080729 0.081380 0.082031 0.082682 0.083333 0.083984 0.084635 0.085286 0.085938 0.086589 0.087240 0.087891 0.088542 0.089193 0.089844 0.090495 0.091146 0.091797 0.092448 0.093099 0.093750 0.094401 0.095052 0.095703 0.096354 0.097005 0.097656 0.098307 0.098958 0.099609 0.100260 0.100911 0.101562 0.102214 0.102865 0.103516 0.104167 0.104818 0.105469 0.106120 0.106771 0.107422 0.108073 0.108724 0.109375 0.110026 0.110677 0.111328 0.111979 0.112630 0.113281 0.113932 0.114583 0.115234 0.115885 0.116536 0.117188 0.117839 0.118490 0.119141 0.119792 0.120443 0.121094 0.121745 0.122396 0.123047 0.123698 0.124349 0.125000 0.125651 0.126302 0.126953 0.127604 0.128255 0.128906 0.129557 0.130208 0.130859 0.131510 0.132161 0.132812 0.133464 0.134115 0.134766 0.135417 0.136068 0.136719 0.137370 0.138021 0.138672 0.139323 0.139974 0.140625 0.141276 0.141927 0.142578 0.143229 0.143880 0.144531 0.145182 0.145833 0.146484 0.147135 0.147786 0.148438 0.149089 0.149740 0.150391 0.151042 0.151693 0.152344 0.152995 0.153646 0.154297 0.154948 0.155599 0.156250 0.156901 0.157552 0.158203 0.158854 0.159505 0.160156 0.160807 0.161458 0.162109 0.162760 0.163411 0.164062 0.164714 0.165365 0.166016 0.166667 0.167318 0.167969 0.168620 0.169271 0.169922 0.170573 0.171224 0.171875 0.172526 0.173177 0.173828 0.174479 0.175130 0.175781 0.176432 0.177083 0.177734 0.178385 0.179036 0.179688 0.180339 0.180990 0.181641 0.182292 0.182943 0.183594 0.184245 0.184896 0.185547 0.186198 0.186849 0.187500 0.188151 0.188802 0.189453 0.190104 0.190755 0.191406 0.192057 0.192708 0.193359 0.194010 0.194661 0.195312 0.195964 0.196615 0.197266 0.197917 0.198568 0.199219 0.199870 0.200521 0.201172 0.201823 0.202474 0.203125 0.203776 0.204427 0.205078 0.205729 0.206380 0.207031 0.207682 0.208333 0.208984 0.209635 0.210286 0.210938 0.211589 0.212240 0.212891 0.213542 0.214193 0.214844 0.215495 0.216146 0.216797 0.217448 0.218099 0.218750 0.219401 0.220052 0.220703 0.221354 0.222005 0.222656 0.223307 0.223958 0.224609 0.225260 0.225911 0.226562 0.227214 0.227865 0.228516 0.229167 0.229818 0.230469 0.231120 0.231771 0.232422 0.233073 0.233724 0.234375 0.235026 0.235677
       0.34523        0.34523        0.34523        0.34523        0.34523        0.34523        0.34524        0.34524        0.34523        0.34523        0.34524        0.34523        0.34523        0.34524        0.34524        0.34523        0.34523        0.34523        0.34524        0.34524        0.34523        0.34523        0.34523        0.34523        0.34523        0.34524        0.34523        0.34524        0.34523        0.34524        0.34523        0.34524        0.34524        0.34524        0.34523        0.34523        0.34524        0.34524        0.34524        0.34523        0.34524        0.34523        0.34523        0.34523        0.34524        0.34524        0.34524        0.34523        0.34523        0.34523        0.34524        0.69905        0.85757        0.53834        0.10543       -0.02910       -0.38558       -0.17990       -0.28842       -0.11591       -0.05497       -0.11251       -0.05319       -0.16620       -0.20531       -0.21338       -0.30666       -0.31793       -0.44350       -0.36188       -0.42531       -0.42045       -0.39336       -0.40637       -0.44617       -0.50709       -0.55836       -0.54908       -0.52320       -0.35583       -0.32538       -0.29064       -0.27056       -0.18513       -0.16934        0.06178        0.14263        0.17582        0.26666        0.38167        0.45802        0.52338        0.60143        0.59877        0.58498        0.70050        0.80304        0.70300        0.74455        0.61941        0.56891        0.48390        0.43315        0.51246        0.39810        0.27256        0.11732        0.11398        0.09464       -0.01255        0.04610        0.05358        0.01250        0.02850        0.03177        0.23701        0.27176        0.29686        0.43579        0.45411        0.41508        0.60085        0.61851        0.63476        0.72393        0.67621        0.64722        0.65602        0.56008        0.46056        0.41909        0.30452        0.27131        0.18542        0.13690        0.05260        0.06662        0.07680        0.10023        0.16053        0.24625        0.29890        0.42352        0.46580        0.48149        0.56451        0.60266        0.63685        0.61474        0.55803        0.46233        0.47373        0.37905        0.27841        0.21306        0.15678        0.17361        0.15406        0.16219        0.19170        0.32428        0.33875        0.40799        0.44720        0.42601        0.48050        0.56383        0.55550        0.50363        0.45784        0.41425        0.37364        0.34292        0.31026        0.26628        0.24800        0.25620        0.25750        0.22685        0.31071        0.36542        0.38478        0.43978        0.45629        0.46767        0.42784        0.41276        0.40259        0.36393        0.33867        0.27522        0.28212        0.26980        0.24752        0.29685        0.29404        0.35290        0.38394        0.43576        0.47700        0.40724        0.42313        0.43303        0.41248        0.35075        0.32934        0.29348        0.32759        0.27667        0.32449        0.31649        0.33419        0.34256        0.36551        0.31407        0.38861        0.41239        0.38140        0.35247        0.36982        0.31951        0.29625        0.30891        0.32051        0.30873        0.32089        0.34595        0.35819        0.34163        0.36451        0.36326        0.42419        0.39123        0.34043        0.34946        0.30036        0.29523        0.32762        0.32094        0.33131        0.34398        0.34373        0.38851        0.33176        0.33083        0.33926        0.34993        0.30526        0.31325        0.28295        0.30366        0.33206        0.30523        0.33272        0.35953        0.37133        0.29967        0.34380        0.30045        0.29385        0.27969        0.24787        0.30843        0.30840        0.34317        0.34004        0.34536        0.32845        0.34997        0.31596        0.34687        0.30686        0.32639        0.29289        0.33792        0.33194        0.37361        0.33182        0.33684        0.33760        0.29365        0.27654        0.31322        0.25094        0.23022        0.34126        0.32423        0.36860        0.34849        0.36445        0.33667        0.33475        0.35203        0.26697        0.26975        0.32007        0.30156        0.31220        0.31525        0.34004        0.32937        0.28930        0.29127        0.34578        0.32294        0.32268        0.30001        0.32257        0.33837        0.39347        0.36420        0.32117        0.28430        0.30451        0.29094        0.30786        0.27908        0.27160        0.31271        0.32946        0.34619        0.35651        0.33278        0.29638        0.30245        0.27200        0.27983        0.25730        0.30701        0.26141        0.24898        0.29044        0.28540        0.26228        0.29504        0.22041        0.21700        0.23964        0.19384        0.27386        0.35001        0.25415        0.24393        0.31842        0.30185        0.31039        0.31455        0.27376        0.25399        0.19315        0.21028        0.20879        0.28249        0.23710        0.28359        0.36609        0.37065        0.25581        0.18030        0.12472       -0.01346       -0.13067       -0.62797
2.808847 2.779037 2.749390 2.719905 2.690583 2.661423 2.632425 2.603589 2.574916 2.546406 2.518057 2.489871 2.461847 2.433986 2.406287 2.378750 2.351376 2.324163 2.297114 2.270226 2.243501 2.216939 2.190538 2.164300 2.138225 2.112311 2.086560 2.060971 2.035545 2.010281 1.985179 1.960240 1.935463 1.910849 1.886396 1.862106 1.837979 1.814013 1.790210 1.766570 1.743092 1.719776 1.696622 1.673631 1.650802 1.628135 1.605631 1.583289 1.561109 1.539092 1.517237 1.735492 2.162413 1.717331 1.194644 1.057466 0.455827 0.853174 0.563038 0.848720 0.818588 0.821904 0.760500 0.758655 0.599491 0.563358 0.503515 0.429244 0.250384 0.365494 0.200199 0.331573 0.219417 0.211313 0.185905 0.041572 0.001790 0.019102 -0.070271 0.134004 0.233944 0.189559 0.180027 0.325867 0.184752 0.524113 0.628031 0.637653 0.654500 0.881294 0.839921 0.948465 0.945071 1.041965 1.011593 1.094336 1.177005 1.049511 1.172937 0.914553 0.934612 0.800706 0.657544 0.813103 0.698398 0.499811 0.335043 0.252855 0.271200 0.150078 0.138676 0.167245 0.109666 0.120217 0.083302 0.249703 0.351707 0.343106 0.479481 0.547475 0.418702 0.597415 0.735488 0.647981 0.723036 0.713349 0.722245 0.648229 0.598353 0.492151 0.368804 0.277845 0.221386 0.092516 0.116609 -0.117269 -0.049640 -0.063497 -0.084667 -0.018782 0.129319 0.071024 0.243606 0.308811 0.337338 0.374622 0.498008 0.467623 0.480146 0.491667 0.305606 0.294480 0.287655 0.086489 0.046308 -0.082132 -0.015813 -0.063089 -0.097267 -0.070918 0.040411 0.095442 0.126447 0.225491 0.224062 0.220815 0.316718 0.342276 0.447005 0.257000 0.233002 0.227144 0.144023 0.145601 0.120306 -0.004199 0.015557 0.077196 -0.010726 0.045083 0.134076 0.135542 0.213935 0.234539 0.258591 0.161155 0.211656 0.128459 0.127223 0.114767 0.027178 -0.026988 -0.000945 -0.020819 -0.052923 0.055397 0.004145 0.106792 0.138893 0.193785 0.164455 0.118592 0.140622 0.160061 0.110381 0.035485 -0.026239 0.029029 0.028596 -0.043809 0.037607 0.020603 0.047980 0.039423 0.055454 0.020470 0.140237 0.119175 0.046379 0.037551 0.042402 0.005429 -0.030936 0.009220 0.004549 -0.004394 0.003297 0.057295 0.053679 0.039230 0.073891 0.061255 0.164383 0.064104 0.040904 0.043293 -0.034939 0.012410 0.047693 0.007794 0.033072 0.055796 0.080992 0.050247 0.042205 0.008201 0.079793 0.026875 0.020416 0.024447 -0.006306 0.032354 0.026721 0.021029 0.069525 0.075580 0.077838 0.041313 0.052838 0.023668 0.015455 -0.024092 -0.024624 0.037318 0.052868 0.080774 0.080944 0.067330 0.071051 0.097440 0.043300 0.090977 0.057718 0.044789 0.017965 0.105078 0.062908 0.125314 0.065803 0.067211 0.097887 0.031211 0.002481 0.085529 -0.039919 -0.028815 0.093723 0.043734 0.159859 0.092370 0.089450 0.065821 0.032284 0.090408 -0.026837 -0.025213 0.048191 0.033355 0.033242 0.018687 0.102310 0.030820 -0.013840 0.049403 0.040528 0.053874 0.055651 -0.009190 0.057320 0.049728 0.116608 0.056614 0.027582 -0.029311 -0.027316 -0.004943 0.006613 -0.057309 -0.023206 -0.000339 0.015327 0.034522 0.057482 0.004796 -0.033353 -0.029732 -0.019360 -0.066330 -0.047317 -0.034630 -0.130905 -0.095845 -0.058023 -0.093694 -0.107191 -0.025902 -0.152934 -0.104689 -0.113776 -0.189815 -0.069514 0.061556 -0.073024 -0.137986 0.050262 0.029897 -0.025834 0.073169 -0.024681 -0.001438 -0.089000 -0.039729 0.047544 0.128175 0.053690 0.136640 0.170047 0.436597 0.239497 0.327240 0.156739 -0.018947 -0.702948
0.072396 0.072899 0.074408 0.076923 0.080442 0.084966 0.090493 0.097021 0.104548 0.113071 0.122587 0.133092 0.144580 0.157045 0.170479 0.184873 0.200216 0.216495 0.233694 0.251798 0.270784 0.290632 0.311314 0.332800 0.355059 0.378052 0.401738 0.426071 0.451001 0.476470 0.502418 0.528778 0.555476 0.582433 0.609565 0.636779 0.663976 0.691052 0.717893 0.744381 0.770390 0.795787 0.820434 0.844184 0.866886 0.888383 0.908511 0.927105 0.943993 0.959000 0.971950 0.982665 0.990966 0.996676 0.999619 0.999625 0.996527 0.990165 0.980390 0.967061 0.950051 0.929247 0.904554 0.875894 0.843212 0.806476 0.765678 0.720840 0.672013 0.619279 0.562757 0.502598 0.438991 0.372166 0.302391 0.229972 0.155258 0.078638 0.000542 0.078563 0.158172 0.237744 0.316706 0.394456 0.470366 0.543788 0.614058 0.680502 0.742445 0.799214 0.850149 0.894611 0.931988 0.961708 0.983246 0.996132 0.999965 0.994420 0.979255 0.954324 0.919584 0.875099 0.821053 0.757750 0.685619 0.605218 0.517235 0.422486 0.321911 0.216569 0.107632 0.003625 0.115838 0.227571 0.337325 0.443568 0.544745 0.639312 0.725755 0.802615 0.868521 0.922213 0.962569 0.988636 0.999654 0.995077 0.974601 0.938177 0.886030 0.818668 0.736888 0.641778 0.534710 0.417331 0.291544 0.159480 0.023477 0.113966 0.250228 0.382616 0.508417 0.624955 0.729650 0.820083 0.894052 0.949636 0.985253 0.999708 0.992245 0.962583 0.910946 0.838081 0.745265 0.634297 0.507480 0.367582 0.217788 0.061640 0.097044 0.254260 0.405912 0.547923 0.676347 0.787481 0.877987 0.944995 0.986209 0.999999 0.985475 0.942547 0.871961 0.775308 0.655016 0.514304 0.357117 0.188028 0.012119 0.165163 0.338173 0.501243 0.648874 0.775926 0.877809 0.950662 0.991519 0.998444 0.970643 0.908534 0.813777 0.689264 0.539057 0.368274 0.182943 0.010204 0.203956 0.390888 0.563655 0.715278 0.839438 0.930759 0.985061 0.999574 0.973106 0.906146 0.800903 0.661272 0.492724 0.302116 0.097445 0.112485 0.318412 0.511041 0.681451 0.821537 0.924403 0.984735 0.999100 0.966178 0.886892 0.764434 0.604186 0.413520 0.201491 0.021564 0.244513 0.455987 0.644945 0.801279 0.916371 0.983596 0.998744 0.960322 0.869718 0.731213 0.551830 0.341025 0.110224 0.127768 0.359465 0.571455 0.751196 0.887768 0.972582 0.999951 0.967528 0.876538 0.731811 0.541585 0.317088 0.071924 0.178731 0.419038 0.633511 0.808024 0.930768 0.993097 0.990192 0.921484 0.790811 0.606281 0.379826 0.126489 0.136530 0.391031 0.619068 0.804223 0.932829 0.995026 0.985575 0.904365 0.756560 0.552342 0.306295 0.036407 0.237193 0.493732 0.713363 0.878733 0.976403 0.998000 0.941005 0.809111 0.612072 0.365068 0.087617 0.197942 0.468200 0.700614 0.875404 0.977295 0.996918 0.931760 0.786538 0.572969 0.308924 0.016983 0.277409 0.548181 0.770923 0.925138 0.996193 0.976795 0.867827 0.678464 0.425503 0.131969 0.174911 0.466206 0.713991 0.894083 0.988438 0.987067 0.889190 0.703522 0.447617 0.146322 0.170569 0.471221 0.724941 0.905363 0.993248 0.978645 0.862127 0.654964 0.378159 0.060435 0.264682 0.562352 0.800178 0.951773 0.999789 0.938016 0.772305 0.520174 0.209086 0.126442 0.448617 0.720593 0.910754 0.996455 0.966842 0.824366 0.584771 0.275495 0.067348 0.403108 0.691403 0.897010 0.994249 0.970320 0.827136 0.581386 0.262738 0.089604 0.431644 0.720076 0.917807 0.998816 0.951732 0.781582 0.509460 0.170071 0.192542
1.000000 1.000000 1.000000 1.000000 1.000000 1.000000 1.000000 1.000000 1.000000 1.000000 1.000000 1.000000 1.000000 1.000000 1.000000 1.000000 1.000000 1.000000 1.000000 1.000000 1.000000 1.000000 1.000000 1.000000 1.000000 1.000000 1.000000 1.000000 1.000000 1.000000 1.000000 1.000000 1.000000 1.000000 1.000000 1.000000 1.000000 1.000000 1.000000 1.000000 1.000000 1.000000 1.000000 1.000000 1.000000 1.000000 1.000000 1.000000 1.000000 1.000000 1.000000 1.000000 0.915732 0.915732 0.915732 0.911354 0.911354 0.911354 0.911354 0.911354 0.911354 0.911354 0.911354 0.911354 0.911354 0.911354 0.911354 0.911354 0.911354 0.911354 0.911354 0.911354 0.911354 0.911354 0.911354 0.911354 0.911354 0.911354 0.911354 0.911354 0.911354 0.911354 0.911354 0.911354 0.911354 0.911354 0.911354 0.911354 0.911354 0.911354 0.911354 0.911354 0.911354 0.911354 0.911354 0.911354 0.939842 0.941274 0.949614 0.949148 0.948552 0.946561 0.945304 0.944956 0.944868 0.945221 0.945957 0.946952 0.953176 0.954113 0.958526 0.961244 0.961215 0.962952 0.964915 0.964554 0.956233 0.955990 0.954558 0.953828 0.955938 0.954568 0.953329 0.953799 0.953416 0.955843 0.955401 0.954182 0.952530 0.950924 0.949621 0.949067 0.948834 0.949638 0.949717 0.951292 0.954320 0.954480 0.954215 0.951454 0.951071 0.952276 0.951712 0.953534 0.941362 0.940710 0.939243 0.939241 0.941838 0.941733 0.941633 0.942536 0.942237 0.942159 0.942305 0.935642 0.935384 0.927883 0.924333 0.922901 0.917543 0.913494 0.916102 0.918691 0.919899 0.920341 0.911200 0.908280 0.909252 0.908086 0.909545 0.909497 0.910583 0.910982 0.910904 0.905621 0.895711 0.894050 0.886251 0.888968 0.885733 0.883097 0.880091 0.871176 0.862588 0.874791 0.861763 0.820723 0.824408 0.828836 0.820716 0.816848 0.817750 0.819270 0.824244 0.818046 0.816677 0.810735 0.797597 0.792771 0.785148 0.771491 0.769368 0.760418 0.750006 0.744113 0.767947 0.761564 0.773305 0.777632 0.777165 0.773695 0.764708 0.753845 0.754069 0.749574 0.745671 0.722450 0.714596 0.714733 0.712155 0.700124 0.703402 0.691575 0.691776 0.679358 0.684145 0.689790 0.692980 0.688867 0.682413 0.673914 0.670095 0.683443 0.697536 0.689589 0.685578 0.691284 0.681742 0.676915 0.669763 0.673854 0.666636 0.657702 0.660004 0.693591 0.665249 0.654890 0.662337 0.664054 0.660277 0.660922 0.640460 0.634428 0.611830 0.629161 0.634572 0.651375 0.652429 0.654801 0.665671 0.671534 0.682270 0.686868 0.685582 0.645664 0.649783 0.668737 0.676385 0.664912 0.654875 0.654783 0.648326 0.684749 0.669446 0.627166 0.623070 0.622248 0.578019 0.558022 0.556343 0.558482 0.585383 0.581767 0.563784 0.537810 0.539852 0.541148 0.540078 0.538425 0.522370 0.530090 0.514785 0.491060 0.503383 0.511353 0.509945 0.494061 0.486579 0.499831 0.477993 0.506227 0.482354 0.463568 0.480786 0.479300 0.468541 0.396588 0.405113 0.394309 0.380482 0.336350 0.345810 0.355496 0.337984 0.263560 0.257412 0.258202 0.254813 0.235627 0.214422 0.201073 0.190667 0.168409 0.105885 0.057224 0.058028 0.061695 0.088904 0.048601 0.102341 0.169877 0.168015 0.168015 0.168015 0.168015 0.168015 0.168015 0.168015 0.168015 0.143948 0.143948 0.143948 0.143948 0.143948 0.143948 0.143948 0.143948 0.143948 0.168015 0.168015 0.168015 0.168015 0.168015 0.168015 0.168015 0.168015 0.168015 0.168015 0.168015 0.168015 0.168015 0.168015
0.000000 0.000000 0.000000 0.000000 0.000000 0.000000 0.000000 0.000000 0.000000 0.000000 0.000000 0.000000 0.000000 0.000000 0.000000 0.000000 0.000000 0.000000 0.000000 0.000000 0.000000 0.000000 0.000000 0.000000 0.000000 0.000000 0.000000 0.000000 0.000000 0.000000 0.000000 0.000000 0.000000 0.000000 0.000000 0.000000 0.000000 0.000000 0.000000 0.000000 0.000000 0.000000 0.000000 0.000000 0.000000 0.000000 0.000000 0.000000 0.000000 0.000000 0.000000 0.000000 0.180334 0.180334 0.180334 0.199007 0.199007 0.199007 0.199007 0.199007 0.199007 0.199007 0.199007 0.199007 0.199007 0.199007 0.199007 0.199007 0.199007 0.199007 0.199007 0.199007 0.199007 0.199007 0.199007 0.199007 0.199007 0.199007 0.199007 0.199007 0.199007 0.199007 0.199007 0.199007 0.199007 0.199007 0.199007 0.199007 0.199007 0.199007 0.199007 0.199007 0.199007 0.199007 0.199007 0.199007 0.225018 0.225018 0.225018 0.225018 0.225018 0.225018 0.225018 0.225018 0.225018 0.225018 0.225018 0.225018 0.225018 0.225018 0.225018 0.225018 0.225018 0.225018 0.225018 0.225018 0.225018 0.225018 0.225018 0.225018 0.225018 0.225018 0.225018 0.225018 0.225018 0.244339 0.244339 0.244339 0.244339 0.244339 0.244339 0.244339 0.244339 0.244339 0.244339 0.244339 0.244339 0.244339 0.244339 0.244339 0.244339 0.244339 0.244339 0.244339 0.244339 0.244339 0.244339 0.244339 0.256074 0.256074 0.256074 0.256074 0.256074 0.256074 0.256074 0.256074 0.256074 0.256074 0.256074 0.256074 0.256074 0.256074 0.256074 0.256074 0.256074 0.256074 0.256074 0.256074 0.256074 0.256074 0.256074 0.256074 0.256074 0.256074 0.256074 0.256074 0.256074 0.256074 0.256074 0.256074 0.256074 0.256074 0.256074 0.256074 0.256074 0.264906 0.264906 0.264906 0.264906 0.264906 0.264906 0.264906 0.264906 0.264906 0.264906 0.264906 0.264906 0.264906 0.264906 0.264906 0.264906 0.264906 0.264906 0.264906 0.264906 0.264906 0.264906 0.264906 0.264906 0.264906 0.264906 0.264906 0.264906 0.264906 0.264906 0.264906 0.264906 0.264906 0.264906 0.264906 0.264906 0.264906 0.264906 0.264906 0.264906 0.264906 0.264906 0.264906 0.264906 0.264906 0.264906 0.264906 0.264906 0.264906 0.264906 0.264906 0.264906 0.264906 0.264906 0.264906 0.264906 0.264906 0.264906 0.260378 0.260378 0.260378 0.260378 0.260378 0.260378 0.260378 0.260378 0.260378 0.260378 0.260378 0.260378 0.260378 0.264906 0.264906 0.264906 0.264906 0.264906 0.264906 0.264906 0.264906 0.264906 0.264906 0.264906 0.264906 0.269680 0.269680 0.269680 0.269680 0.269680 0.269680 0.269680 0.269680 0.269680 0.269680 0.269680 0.264906 0.264906 0.264906 0.264906 0.264906 0.264906 0.264906 0.264906 0.264906 0.264906 0.264906 0.256074 0.256074 0.256074 0.256074 0.256074 0.256074 0.256074 0.256074 0.256074 0.256074 0.256074 0.264906 0.264906 0.264906 0.264906 0.264906 0.264906 0.264906 0.264906 0.264906 0.264906 0.260378 0.260378 0.260378 0.260378 0.260378 0.260378 0.260378 0.260378 0.260378 0.260378 0.264906 0.264906 0.264906 0.264906 0.264906 0.264906 0.264906 0.264906 0.264906 0.251976 0.251976 0.251976 0.251976 0.251976 0.251976 0.251976 0.251976 0.251976 0.251976 0.256074 0.256074 0.256074 0.256074 0.256074 0.256074 0.256074 0.256074 0.256074 0.251976 0.251976 0.251976 0.251976 0.251976 0.251976 0.251976 0.251976 0.251976 0.251976 0.251976 0.251976 0.251976 0.251976
