# Output from CTFFind version 4.1.9, run on 2019-11-03 19:01:34
# Input file: stack11_bm3d_averaged_1_2.25_0_2500_half.mrc ; Number of micrographs: 1
# Pixel size: 3.000 Angstroms ; acceleration voltage: 300.0 keV ; spherical aberration: 0.00 mm ; amplitude contrast: 0.07
# Box size: 512 pixels ; min. res.: 30.0 Angstroms ; max. res.: 5.0 Angstroms ; min. def.: 5000.0 um; max. def. 50000.0 um; num. frames averaged: 1
# 6 lines per micrograph: #1 - spatial frequency (1/Angstroms); #2 - 1D rotational average of spectrum (assuming no astigmatism); #3 - 1D rotational average of spectrum; #4 - CTF fit; #5 - cross-correlation between spectrum and CTF fit; #6 - 2sigma of expected cross correlation of noise
0.000000 0.000651 0.001302 0.001953 0.002604 0.003255 0.003906 0.004557 0.005208 0.005859 0.006510 0.007161 0.007812 0.008464 0.009115 0.009766 0.010417 0.011068 0.011719 0.012370 0.013021 0.013672 0.014323 0.014974 0.015625 0.016276 0.016927 0.017578 0.018229 0.018880 0.019531 0.020182 0.020833 0.021484 0.022135 0.022786 0.023438 0.024089 0.024740 0.025391 0.026042 0.026693 0.027344 0.027995 0.028646 0.029297 0.029948 0.030599 0.031250 0.031901 0.032552 0.033203 0.033854 0.034505 0.035156 0.035807 0.036458 0.037109 0.037760 0.038411 0.039062 0.039714 0.040365 0.041016 0.041667 0.042318 0.042969 0.043620 0.044271 0.044922 0.045573 0.046224 0.046875 0.047526 0.048177 0.048828 0.049479 0.050130 0.050781 0.051432 0.052083 0.052734 0.053385 0.054036 0.054688 0.055339 0.055990 0.056641 0.057292 0.057943 0.058594 0.059245 0.059896 0.060547 0.061198 0.061849 0.062500 0.063151 0.063802 0.064453 0.065104 0.065755 0.066406 0.067057 0.067708 0.068359 0.069010 0.069661 0.070312 0.070964 0.071615 0.072266 0.072917 0.073568 0.074219 0.074870 0.075521 0.076172 0.076823 0.077474 0.078125 0.078776 0.079427 0.080078 0.080729 0.081380 0.082031 0.082682 0.083333 0.083984 0.084635 0.085286 0.085938 0.086589 0.087240 0.087891 0.088542 0.089193 0.089844 0.090495 0.091146 0.091797 0.092448 0.093099 0.093750 0.094401 0.095052 0.095703 0.096354 0.097005 0.097656 0.098307 0.098958 0.099609 0.100260 0.100911 0.101562 0.102214 0.102865 0.103516 0.104167 0.104818 0.105469 0.106120 0.106771 0.107422 0.108073 0.108724 0.109375 0.110026 0.110677 0.111328 0.111979 0.112630 0.113281 0.113932 0.114583 0.115234 0.115885 0.116536 0.117188 0.117839 0.118490 0.119141 0.119792 0.120443 0.121094 0.121745 0.122396 0.123047 0.123698 0.124349 0.125000 0.125651 0.126302 0.126953 0.127604 0.128255 0.128906 0.129557 0.130208 0.130859 0.131510 0.132161 0.132812 0.133464 0.134115 0.134766 0.135417 0.136068 0.136719 0.137370 0.138021 0.138672 0.139323 0.139974 0.140625 0.141276 0.141927 0.142578 0.143229 0.143880 0.144531 0.145182 0.145833 0.146484 0.147135 0.147786 0.148438 0.149089 0.149740 0.150391 0.151042 0.151693 0.152344 0.152995 0.153646 0.154297 0.154948 0.155599 0.156250 0.156901 0.157552 0.158203 0.158854 0.159505 0.160156 0.160807 0.161458 0.162109 0.162760 0.163411 0.164062 0.164714 0.165365 0.166016 0.166667 0.167318 0.167969 0.168620 0.169271 0.169922 0.170573 0.171224 0.171875 0.172526 0.173177 0.173828 0.174479 0.175130 0.175781 0.176432 0.177083 0.177734 0.178385 0.179036 0.179688 0.180339 0.180990 0.181641 0.182292 0.182943 0.183594 0.184245 0.184896 0.185547 0.186198 0.186849 0.187500 0.188151 0.188802 0.189453 0.190104 0.190755 0.191406 0.192057 0.192708 0.193359 0.194010 0.194661 0.195312 0.195964 0.196615 0.197266 0.197917 0.198568 0.199219 0.199870 0.200521 0.201172 0.201823 0.202474 0.203125 0.203776 0.204427 0.205078 0.205729 0.206380 0.207031 0.207682 0.208333 0.208984 0.209635 0.210286 0.210938 0.211589 0.212240 0.212891 0.213542 0.214193 0.214844 0.215495 0.216146 0.216797 0.217448 0.218099 0.218750 0.219401 0.220052 0.220703 0.221354 0.222005 0.222656 0.223307 0.223958 0.224609 0.225260 0.225911 0.226562 0.227214 0.227865 0.228516 0.229167 0.229818 0.230469 0.231120 0.231771 0.232422 0.233073 0.233724 0.234375 0.235026 0.235677
       0.31506        0.31506        0.31506        0.31506        0.31506        0.31506        0.31506        0.31506        0.31506        0.31506        0.31506        0.31506        0.31506        0.31506        0.31506        0.31506        0.31506        0.31506        0.31506        0.31506        0.31506        0.31506        0.31506        0.31506        0.31506        0.31506        0.31506        0.31506        0.31506        0.31506        0.31506        0.31506        0.31506        0.31506        0.31506        0.31506        0.31506        0.31506        0.31506        0.31506        0.31506        0.31506        0.31506        0.31506        0.31506        0.31506        0.31506        0.31506        0.31506        0.31506        0.31506        0.68033        0.86315        0.52071        0.08661       -0.06319       -0.42841       -0.20441       -0.30094       -0.12072       -0.07754       -0.12065       -0.07145       -0.20947       -0.23676       -0.25623       -0.33303       -0.34277       -0.48795       -0.38285       -0.46371       -0.45230       -0.42343       -0.46536       -0.53364       -0.55863       -0.58700       -0.61874       -0.57732       -0.41230       -0.37842       -0.33281       -0.31705       -0.21015       -0.19913        0.02090        0.07765        0.11062        0.22459        0.36665        0.43963        0.50949        0.55589        0.55156        0.56643        0.69111        0.80797        0.73370        0.73055        0.65689        0.57039        0.48146        0.40378        0.49335        0.37576        0.20392        0.07490        0.04629        0.01428       -0.06112       -0.03503       -0.01373       -0.06622       -0.01071       -0.02192        0.21376        0.25022        0.28643        0.41971        0.44950        0.40100        0.53774        0.62296        0.68795        0.75461        0.68353        0.65161        0.68842        0.57576        0.49102        0.41412        0.28518        0.19450        0.15519        0.10947        0.03647        0.00976        0.00481        0.07298        0.12853        0.20484        0.27249        0.39279        0.41991        0.49875        0.59635        0.62740        0.61859        0.62353        0.54923        0.44143        0.44940        0.35081        0.22587        0.17934        0.14401        0.11643        0.12738        0.08066        0.10918        0.23208        0.26348        0.34637        0.36001        0.44197        0.50794        0.53647        0.54265        0.46567        0.42880        0.38585        0.35695        0.30086        0.25113        0.20691        0.19018        0.16739        0.19781        0.17970        0.27270        0.33186        0.36700        0.42469        0.45806        0.47585        0.43125        0.38484        0.40869        0.36845        0.27753        0.26256        0.22104        0.21893        0.19341        0.21812        0.22919        0.32464        0.37085        0.37101        0.46008        0.42864        0.43529        0.42615        0.39143        0.33827        0.32079        0.27760        0.24824        0.23635        0.26824        0.27322        0.30029        0.30206        0.32919        0.32096        0.40237        0.41577        0.37342        0.34404        0.36184        0.27962        0.27867        0.25925        0.27935        0.26051        0.27937        0.28973        0.30712        0.34312        0.35922        0.36338        0.34037        0.34983        0.28879        0.32173        0.26813        0.23995        0.28762        0.28667        0.31042        0.30722        0.32001        0.32448        0.31211        0.31622        0.28562        0.28797        0.26414        0.28403        0.26349        0.29891        0.28223        0.26808        0.30294        0.30847        0.31486        0.27649        0.29993        0.27690        0.25736        0.24896        0.21463        0.27612        0.27403        0.32440        0.30472        0.31744        0.31340        0.31091        0.27522        0.29136        0.32581        0.26449        0.25642        0.29335        0.28265        0.33910        0.33307        0.34496        0.32824        0.30001        0.27971        0.26961        0.24750        0.22348        0.27336        0.30327        0.29181        0.27765        0.29239        0.27163        0.32540        0.33099        0.25053        0.22069        0.27408        0.32438        0.27719        0.30822        0.32893        0.32068        0.29582        0.31066        0.33621        0.29318        0.27836        0.24773        0.28874        0.35363        0.36098        0.26758        0.26087        0.25236        0.28574        0.21502        0.28588        0.23430        0.24964        0.33217        0.32474        0.34924        0.29972        0.23448        0.23506        0.24250        0.23272        0.19919        0.22778        0.27332        0.29588        0.24383        0.31502        0.31108        0.25821        0.25965        0.19881        0.16474        0.20426        0.21753        0.19127        0.21305        0.22456        0.18787        0.25442        0.35388        0.30973        0.33117        0.23277        0.21998        0.20206        0.27951        0.28329        0.15091        0.24219        0.23899        0.10922        0.19415        0.13072        0.14410        0.22342        0.16622       -0.10242       -0.61102
2.592105 2.565022 2.538085 2.511295 2.484651 2.458155 2.431806 2.405603 2.379548 2.353639 2.327877 2.302262 2.276794 2.251473 2.226299 2.201271 2.176391 2.151657 2.127071 2.102631 2.078338 2.054192 2.030193 2.006341 1.982635 1.959077 1.935665 1.912401 1.889283 1.866312 1.843488 1.820811 1.798281 1.775898 1.753661 1.731572 1.709629 1.687833 1.666185 1.644683 1.623328 1.602120 1.581058 1.560144 1.539377 1.518756 1.498282 1.477956 1.457776 1.437743 1.417857 1.637703 2.045158 1.617819 1.131230 0.992212 0.416422 0.817688 0.554299 0.832999 0.772897 0.790571 0.747436 0.709585 0.562469 0.517767 0.483769 0.435374 0.210195 0.378580 0.202108 0.308318 0.231669 0.184097 0.138964 0.011785 0.037290 -0.007007 -0.057390 0.107368 0.209240 0.189708 0.152509 0.333399 0.197309 0.498004 0.582909 0.559248 0.598030 0.871706 0.811490 0.938092 0.886350 0.975548 0.942794 1.068526 1.149339 1.071933 1.125979 0.940675 0.932565 0.786459 0.647515 0.774028 0.708355 0.460160 0.309553 0.247267 0.220561 0.147124 0.094237 0.133593 0.079899 0.146048 0.054896 0.261165 0.377945 0.359633 0.473758 0.567705 0.456143 0.553172 0.700311 0.735193 0.768103 0.729493 0.730767 0.702484 0.622341 0.559516 0.422865 0.280366 0.212838 0.081539 0.132297 -0.044189 -0.036166 -0.071036 -0.041853 -0.002775 0.150521 0.080085 0.290855 0.282675 0.356495 0.449079 0.523928 0.508411 0.511752 0.498833 0.330542 0.307421 0.280516 0.095134 0.047930 -0.018472 -0.024825 -0.038346 -0.082211 -0.096625 0.001138 0.053202 0.134555 0.154309 0.225351 0.320076 0.314095 0.425187 0.386395 0.276006 0.230345 0.238277 0.189839 0.103427 0.087664 0.016057 0.003009 0.015860 -0.010746 0.060997 0.149366 0.138680 0.239244 0.251913 0.313117 0.237886 0.210857 0.169323 0.214435 0.130912 0.039022 0.029009 -0.008088 -0.010507 -0.035622 0.020253 0.017557 0.158718 0.138693 0.176360 0.234389 0.193828 0.192514 0.190260 0.142346 0.092432 0.057823 0.056939 -0.025942 0.005440 0.021188 0.059589 0.056632 0.072113 0.088272 0.115321 0.142224 0.183593 0.082711 0.093756 0.073067 0.003931 0.003734 0.009142 -0.000314 0.014611 0.010279 0.027571 0.063784 0.083609 0.119826 0.058969 0.108460 0.059608 0.020771 0.061926 -0.031310 -0.012665 0.036078 0.007898 0.061057 0.053322 0.045019 0.077312 0.051084 0.044036 0.030192 0.002513 0.025040 0.014869 -0.003315 0.066320 -0.009973 0.020657 0.060674 0.050719 0.045519 0.045465 0.045070 0.025684 -0.000884 -0.021519 -0.018034 0.030105 0.041311 0.082819 0.063656 0.075744 0.085468 0.071560 0.041025 0.082915 0.093361 0.018831 0.028401 0.068353 0.058634 0.113695 0.110151 0.112744 0.124041 0.078861 0.046163 0.053349 -0.000978 0.014233 0.067082 0.089548 0.055751 0.049200 0.032097 0.027675 0.111934 0.069397 -0.029848 -0.042181 0.039201 0.097651 0.007376 0.040874 0.087740 0.081220 0.038503 0.051488 0.084607 0.035628 0.030028 -0.044980 0.044580 0.127151 0.077597 -0.018329 -0.023002 -0.036847 0.037318 -0.105786 0.041472 -0.077043 -0.025914 0.058649 0.048332 0.044294 -0.018102 -0.071069 -0.063765 -0.077584 -0.053625 -0.095514 -0.085895 -0.015355 0.055514 -0.052232 0.064871 0.001939 -0.053110 0.036977 -0.106452 -0.104277 -0.070061 -0.018100 -0.052915 -0.050522 0.006199 -0.032204 0.023108 0.207071 -0.018149 0.165070 0.024653 0.227128 0.215969 0.322307 0.260441 0.126225 0.244639 0.277201 0.052098 0.207375 0.135954 0.119299 0.299738 0.171393 -0.634705
0.072396 0.072899 0.074406 0.076919 0.080435 0.084955 0.090477 0.096999 0.104519 0.113035 0.122542 0.133038 0.144516 0.156969 0.170391 0.184773 0.200102 0.216366 0.233551 0.251639 0.270609 0.290440 0.311104 0.332573 0.354814 0.377789 0.401456 0.425771 0.450682 0.476133 0.502064 0.528406 0.555088 0.582030 0.609148 0.636349 0.663535 0.690601 0.717435 0.743918 0.769925 0.795324 0.819974 0.843732 0.866446 0.887959 0.908109 0.926728 0.943646 0.958690 0.971682 0.982445 0.990800 0.996571 0.999582 0.999662 0.996645 0.990371 0.980691 0.967463 0.950561 0.929872 0.905299 0.876765 0.844213 0.807611 0.766952 0.722255 0.673570 0.620979 0.564599 0.504580 0.441110 0.374417 0.304766 0.232463 0.157854 0.081329 0.003312 0.075731 0.155295 0.234842 0.313802 0.391573 0.467530 0.541025 0.611398 0.677974 0.740079 0.797042 0.848202 0.892920 0.930585 0.960622 0.982504 0.995762 0.999991 0.994862 0.980131 0.955647 0.921363 0.877337 0.823748 0.760892 0.689194 0.609205 0.521606 0.427204 0.326933 0.221845 0.113106 0.001983 0.110165 0.221908 0.331751 0.438165 0.539599 0.634508 0.721380 0.798754 0.865254 0.919615 0.960711 0.987578 0.999445 0.995757 0.976193 0.940693 0.889462 0.822994 0.742066 0.647749 0.541395 0.424635 0.299352 0.167664 0.031893 0.105473 0.241826 0.374476 0.500714 0.617865 0.723344 0.814721 0.889784 0.946594 0.983546 0.999422 0.993435 0.965273 0.915123 0.843698 0.752236 0.642499 0.516752 0.377730 0.228586 0.072835 0.085729 0.243114 0.395235 0.538016 0.667500 0.779970 0.872061 0.940869 0.984055 0.999939 0.987575 0.946810 0.878325 0.783646 0.665131 0.525939 0.369954 0.201701 0.026217 0.151082 0.324567 0.488571 0.637582 0.766434 0.870487 0.945823 0.989399 0.999192 0.974310 0.915069 0.823021 0.700953 0.552823 0.383660 0.199412 0.006750 0.187155 0.374900 0.549127 0.702823 0.829608 0.924018 0.981762 0.999942 0.977216 0.913920 0.812102 0.675500 0.509439 0.320651 0.117022 0.092708 0.299321 0.493518 0.666337 0.809588 0.916252 0.980854 0.999775 0.971483 0.896677 0.778325 0.621592 0.433658 0.223411 0.001071 0.222306 0.435358 0.627005 0.787028 0.906643 0.979010 0.999661 0.966812 0.881547 0.747844 0.572443 0.364545 0.135384 0.102373 0.335288 0.549929 0.733634 0.875291 0.966038 0.999856 0.974021 0.889359 0.750303 0.564717 0.343510 0.100039 0.150672 0.392832 0.610885 0.790519 0.919632 0.989191 0.993919 0.932743 0.808991 0.630276 0.408105 0.157184 0.105515 0.361866 0.593845 0.784819 0.920743 0.991270 0.990580 0.917928 0.777837 0.579894 0.338173 0.070281 0.203864 0.463510 0.688638 0.861531 0.968204 0.999613 0.952479 0.829705 0.640287 0.398758 0.124121 0.161575 0.434985 0.673377 0.856534 0.968535 0.999190 0.945059 0.809907 0.604551 0.346092 0.056566 0.238885 0.514169 0.744556 0.908929 0.991788 0.984794 0.887701 0.708561 0.463182 0.173810 0.132801 0.427836 0.683103 0.873779 0.980863 0.993166 0.908583 0.734501 0.487285 0.190837 0.125622 0.430400 0.692480 0.884731 0.986765 0.987206 0.885072 0.690095 0.421945 0.108335 0.217742 0.521456 0.769861 0.935509 0.999579 0.954127 0.803191 0.562602 0.258450 0.075631 0.402119 0.683805 0.888059 0.990693 0.978934 0.853158 0.627109 0.326554 0.013536 0.352962 0.651030 0.871451 0.986838 0.982229 0.857171 0.626073 0.316707 0.032998 0.379516 0.679111 0.893390 0.994316 0.968008 0.816810 0.559305 0.228192 0.133704
1.000000 1.000000 1.000000 1.000000 1.000000 1.000000 1.000000 1.000000 1.000000 1.000000 1.000000 1.000000 1.000000 1.000000 1.000000 1.000000 1.000000 1.000000 1.000000 1.000000 1.000000 1.000000 1.000000 1.000000 1.000000 1.000000 1.000000 1.000000 1.000000 1.000000 1.000000 1.000000 1.000000 1.000000 1.000000 1.000000 1.000000 1.000000 1.000000 1.000000 1.000000 1.000000 1.000000 1.000000 1.000000 1.000000 1.000000 1.000000 1.000000 1.000000 1.000000 1.000000 0.926528 0.926528 0.926528 0.915501 0.915501 0.915501 0.915501 0.915501 0.915501 0.915501 0.915501 0.915501 0.915501 0.915501 0.915501 0.915501 0.915501 0.915501 0.915501 0.915501 0.915501 0.915501 0.915501 0.915501 0.915501 0.915501 0.915501 0.915501 0.915501 0.915501 0.915501 0.915501 0.915501 0.915501 0.915501 0.915501 0.915501 0.915501 0.915501 0.915501 0.915501 0.915501 0.915501 0.915501 0.944836 0.946200 0.954224 0.954074 0.953544 0.951434 0.950414 0.949294 0.948806 0.949116 0.949789 0.950711 0.959464 0.960634 0.963420 0.964284 0.965015 0.965655 0.966312 0.966961 0.966159 0.965606 0.965113 0.961219 0.963905 0.963272 0.963389 0.964409 0.964300 0.966070 0.966221 0.965625 0.964724 0.963958 0.963213 0.962772 0.962501 0.963010 0.963326 0.964651 0.967830 0.967312 0.966992 0.967150 0.967255 0.967456 0.967938 0.969680 0.966029 0.966559 0.966551 0.964550 0.971157 0.968454 0.968193 0.968701 0.969102 0.969322 0.965957 0.960596 0.952135 0.951087 0.946931 0.937535 0.935481 0.936795 0.939092 0.939627 0.938633 0.931636 0.932104 0.926646 0.926091 0.929299 0.925379 0.924618 0.925847 0.924740 0.923699 0.922856 0.920175 0.916073 0.913805 0.913189 0.916658 0.918467 0.919798 0.919602 0.913968 0.903271 0.887479 0.884043 0.880285 0.883659 0.874601 0.874115 0.874319 0.870271 0.874250 0.875477 0.876437 0.871623 0.855137 0.834140 0.824740 0.829794 0.835584 0.834857 0.832660 0.826013 0.838837 0.819251 0.832178 0.844341 0.837840 0.838541 0.837610 0.835064 0.826461 0.826508 0.828761 0.829539 0.829110 0.827536 0.820641 0.807686 0.808821 0.765210 0.748523 0.743406 0.748061 0.752885 0.753301 0.751764 0.759994 0.765394 0.768231 0.754674 0.747375 0.737914 0.742934 0.747056 0.751178 0.740188 0.724681 0.713450 0.680319 0.696538 0.717513 0.676772 0.697829 0.706033 0.702655 0.702241 0.693844 0.688436 0.684295 0.687586 0.699789 0.718928 0.733824 0.756802 0.748741 0.738552 0.737372 0.720493 0.707444 0.697150 0.706160 0.685761 0.680277 0.701725 0.701468 0.690433 0.677057 0.659056 0.653277 0.657040 0.661156 0.657121 0.656530 0.641462 0.618001 0.614815 0.640145 0.659049 0.678226 0.664273 0.651251 0.644968 0.624601 0.638785 0.584047 0.583123 0.602711 0.608847 0.587953 0.556113 0.562845 0.579798 0.586559 0.576408 0.548667 0.539635 0.554762 0.578088 0.568340 0.539672 0.542098 0.540469 0.539754 0.481772 0.475737 0.443684 0.416340 0.350357 0.325701 0.324972 0.312542 0.306173 0.276435 0.270960 0.278971 0.289031 0.298974 0.294641 0.280538 0.282045 0.272576 0.260840 0.200109 0.186485 0.178418 0.169407 0.168657 0.145067 0.162090 0.222449 0.223956 0.223956 0.223956 0.223956 0.223956 0.223956 0.232976 0.232976 0.232976 0.232976 0.232976 0.232976 0.232976 0.232976 0.232976 0.247478 0.247478 0.247478 0.247478 0.247478 0.247478 0.247478 0.247478 0.247478 0.247478 0.247478 0.247478 0.247478 0.247478
0.000000 0.000000 0.000000 0.000000 0.000000 0.000000 0.000000 0.000000 0.000000 0.000000 0.000000 0.000000 0.000000 0.000000 0.000000 0.000000 0.000000 0.000000 0.000000 0.000000 0.000000 0.000000 0.000000 0.000000 0.000000 7.000000 4.000000 0.000000 0.000000 0.000000 0.000000 0.000000 0.000000 0.000000 0.000000 0.000000 0.000000 0.000000 0.000000 0.000000 0.000000 0.000000 0.000000 0.000000 0.000000 0.000000 0.000000 0.000000 0.000000 0.000000 0.000000 0.000000 0.180334 0.180334 0.180334 0.199007 0.199007 0.199007 0.199007 0.199007 0.199007 0.199007 0.199007 0.199007 0.199007 0.199007 0.199007 0.199007 0.199007 0.199007 0.199007 0.199007 0.199007 0.199007 0.199007 0.199007 0.199007 0.199007 0.199007 0.199007 0.199007 0.199007 0.199007 0.199007 0.199007 0.199007 0.199007 0.199007 0.199007 0.199007 0.199007 0.199007 0.199007 0.199007 0.199007 0.199007 0.225018 0.225018 0.225018 0.225018 0.225018 0.225018 0.225018 0.225018 0.225018 0.225018 0.225018 0.225018 0.225018 0.225018 0.225018 0.225018 0.225018 0.225018 0.225018 0.225018 0.225018 0.225018 0.225018 0.225018 0.225018 0.225018 0.225018 0.225018 0.225018 0.244339 0.244339 0.244339 0.244339 0.244339 0.244339 0.244339 0.244339 0.244339 0.244339 0.244339 0.244339 0.244339 0.244339 0.244339 0.244339 0.244339 0.244339 0.244339 0.244339 0.244339 0.244339 0.244339 0.251976 0.251976 0.251976 0.251976 0.251976 0.251976 0.251976 0.251976 0.251976 0.251976 0.251976 0.251976 0.251976 0.251976 0.251976 0.251976 0.251976 0.251976 0.251976 0.251976 0.264906 0.264906 0.264906 0.264906 0.264906 0.264906 0.264906 0.264906 0.264906 0.264906 0.264906 0.264906 0.264906 0.264906 0.264906 0.264906 0.264906 0.264906 0.264906 0.264906 0.264906 0.264906 0.264906 0.264906 0.264906 0.264906 0.264906 0.264906 0.264906 0.264906 0.264906 0.264906 0.264906 0.264906 0.264906 0.264906 0.264906 0.264906 0.264906 0.264906 0.264906 0.264906 0.264906 0.264906 0.264906 0.264906 0.264906 0.264906 0.264906 0.264906 0.264906 0.264906 0.264906 0.264906 0.264906 0.264906 0.264906 0.264906 0.264906 0.264906 0.264906 0.264906 0.256074 0.256074 0.256074 0.256074 0.256074 0.256074 0.256074 0.256074 0.256074 0.256074 0.256074 0.256074 0.256074 0.256074 0.269680 0.269680 0.269680 0.269680 0.269680 0.269680 0.269680 0.269680 0.269680 0.269680 0.269680 0.269680 0.264906 0.264906 0.264906 0.264906 0.264906 0.264906 0.264906 0.264906 0.264906 0.264906 0.264906 0.264906 0.269680 0.269680 0.269680 0.269680 0.269680 0.269680 0.269680 0.269680 0.269680 0.269680 0.269680 0.264906 0.264906 0.264906 0.264906 0.264906 0.264906 0.264906 0.264906 0.264906 0.264906 0.264906 0.256074 0.256074 0.256074 0.256074 0.256074 0.256074 0.256074 0.256074 0.256074 0.256074 0.256074 0.264906 0.264906 0.264906 0.264906 0.264906 0.264906 0.264906 0.264906 0.264906 0.264906 0.260378 0.260378 0.260378 0.260378 0.260378 0.260378 0.260378 0.260378 0.260378 0.260378 0.256074 0.256074 0.256074 0.256074 0.256074 0.256074 0.256074 0.256074 0.256074 0.256074 0.260378 0.260378 0.260378 0.260378 0.260378 0.260378 0.260378 0.260378 0.260378 0.256074 0.256074 0.256074 0.256074 0.256074 0.256074 0.256074 0.256074 0.256074 0.251976 0.251976 0.251976 0.251976 0.251976 0.251976 0.251976 0.251976 0.251976 0.251976 0.251976 0.251976 0.251976 0.251976
