# Output from CTFFind version 4.1.9, run on 2019-11-03 19:01:37
# Input file: stack11_bm3d_averaged_1_3.25_0_2500_half.mrc ; Number of micrographs: 1
# Pixel size: 3.000 Angstroms ; acceleration voltage: 300.0 keV ; spherical aberration: 0.00 mm ; amplitude contrast: 0.07
# Box size: 512 pixels ; min. res.: 30.0 Angstroms ; max. res.: 5.0 Angstroms ; min. def.: 5000.0 um; max. def. 50000.0 um; num. frames averaged: 1
# 6 lines per micrograph: #1 - spatial frequency (1/Angstroms); #2 - 1D rotational average of spectrum (assuming no astigmatism); #3 - 1D rotational average of spectrum; #4 - CTF fit; #5 - cross-correlation between spectrum and CTF fit; #6 - 2sigma of expected cross correlation of noise
0.000000 0.000651 0.001302 0.001953 0.002604 0.003255 0.003906 0.004557 0.005208 0.005859 0.006510 0.007161 0.007812 0.008464 0.009115 0.009766 0.010417 0.011068 0.011719 0.012370 0.013021 0.013672 0.014323 0.014974 0.015625 0.016276 0.016927 0.017578 0.018229 0.018880 0.019531 0.020182 0.020833 0.021484 0.022135 0.022786 0.023438 0.024089 0.024740 0.025391 0.026042 0.026693 0.027344 0.027995 0.028646 0.029297 0.029948 0.030599 0.031250 0.031901 0.032552 0.033203 0.033854 0.034505 0.035156 0.035807 0.036458 0.037109 0.037760 0.038411 0.039062 0.039714 0.040365 0.041016 0.041667 0.042318 0.042969 0.043620 0.044271 0.044922 0.045573 0.046224 0.046875 0.047526 0.048177 0.048828 0.049479 0.050130 0.050781 0.051432 0.052083 0.052734 0.053385 0.054036 0.054688 0.055339 0.055990 0.056641 0.057292 0.057943 0.058594 0.059245 0.059896 0.060547 0.061198 0.061849 0.062500 0.063151 0.063802 0.064453 0.065104 0.065755 0.066406 0.067057 0.067708 0.068359 0.069010 0.069661 0.070312 0.070964 0.071615 0.072266 0.072917 0.073568 0.074219 0.074870 0.075521 0.076172 0.076823 0.077474 0.078125 0.078776 0.079427 0.080078 0.080729 0.081380 0.082031 0.082682 0.083333 0.083984 0.084635 0.085286 0.085938 0.086589 0.087240 0.087891 0.088542 0.089193 0.089844 0.090495 0.091146 0.091797 0.092448 0.093099 0.093750 0.094401 0.095052 0.095703 0.096354 0.097005 0.097656 0.098307 0.098958 0.099609 0.100260 0.100911 0.101562 0.102214 0.102865 0.103516 0.104167 0.104818 0.105469 0.106120 0.106771 0.107422 0.108073 0.108724 0.109375 0.110026 0.110677 0.111328 0.111979 0.112630 0.113281 0.113932 0.114583 0.115234 0.115885 0.116536 0.117188 0.117839 0.118490 0.119141 0.119792 0.120443 0.121094 0.121745 0.122396 0.123047 0.123698 0.124349 0.125000 0.125651 0.126302 0.126953 0.127604 0.128255 0.128906 0.129557 0.130208 0.130859 0.131510 0.132161 0.132812 0.133464 0.134115 0.134766 0.135417 0.136068 0.136719 0.137370 0.138021 0.138672 0.139323 0.139974 0.140625 0.141276 0.141927 0.142578 0.143229 0.143880 0.144531 0.145182 0.145833 0.146484 0.147135 0.147786 0.148438 0.149089 0.149740 0.150391 0.151042 0.151693 0.152344 0.152995 0.153646 0.154297 0.154948 0.155599 0.156250 0.156901 0.157552 0.158203 0.158854 0.159505 0.160156 0.160807 0.161458 0.162109 0.162760 0.163411 0.164062 0.164714 0.165365 0.166016 0.166667 0.167318 0.167969 0.168620 0.169271 0.169922 0.170573 0.171224 0.171875 0.172526 0.173177 0.173828 0.174479 0.175130 0.175781 0.176432 0.177083 0.177734 0.178385 0.179036 0.179688 0.180339 0.180990 0.181641 0.182292 0.182943 0.183594 0.184245 0.184896 0.185547 0.186198 0.186849 0.187500 0.188151 0.188802 0.189453 0.190104 0.190755 0.191406 0.192057 0.192708 0.193359 0.194010 0.194661 0.195312 0.195964 0.196615 0.197266 0.197917 0.198568 0.199219 0.199870 0.200521 0.201172 0.201823 0.202474 0.203125 0.203776 0.204427 0.205078 0.205729 0.206380 0.207031 0.207682 0.208333 0.208984 0.209635 0.210286 0.210938 0.211589 0.212240 0.212891 0.213542 0.214193 0.214844 0.215495 0.216146 0.216797 0.217448 0.218099 0.218750 0.219401 0.220052 0.220703 0.221354 0.222005 0.222656 0.223307 0.223958 0.224609 0.225260 0.225911 0.226562 0.227214 0.227865 0.228516 0.229167 0.229818 0.230469 0.231120 0.231771 0.232422 0.233073 0.233724 0.234375 0.235026 0.235677
       0.32354        0.32354        0.32354        0.32354        0.32354        0.32354        0.32354        0.32354        0.32354        0.32354        0.32354        0.32354        0.32354        0.32354        0.32354        0.32354        0.32354        0.32354        0.32354        0.32354        0.32354        0.32354        0.32354        0.32354        0.32354        0.32354        0.32354        0.32354        0.32354        0.32354        0.32354        0.32354        0.32354        0.32354        0.32354        0.32354        0.32354        0.32354        0.32354        0.32354        0.32354        0.32354        0.32354        0.32354        0.32354        0.32354        0.32354        0.32354        0.32354        0.32354        0.32354        0.68588        0.86225        0.52594        0.09616       -0.04835       -0.41777       -0.19505       -0.29551       -0.11546       -0.06691       -0.11420       -0.06330       -0.19712       -0.22431       -0.24281       -0.32537       -0.33430       -0.47178       -0.37597       -0.45145       -0.44385       -0.41461       -0.44956       -0.50624       -0.54288       -0.57663       -0.59795       -0.56255       -0.39424       -0.36702       -0.32354       -0.30405       -0.20281       -0.19369        0.03173        0.09866        0.13220        0.23872        0.37435        0.44724        0.51107        0.56580        0.56397        0.56864        0.69173        0.80645        0.72436        0.73380        0.64702        0.56928        0.48355        0.41189        0.50042        0.38474        0.22319        0.08669        0.06530        0.03804       -0.05083       -0.01268        0.00869       -0.04305       -0.00253       -0.01205        0.22702        0.25826        0.28704        0.41972        0.44598        0.40471        0.55624        0.62629        0.67343        0.74625        0.68499        0.65119        0.68019        0.57034        0.48046        0.41641        0.29005        0.21778        0.16139        0.11769        0.04739        0.02431        0.02242        0.07946        0.13324        0.21659        0.27194        0.39633        0.43593        0.49110        0.59283        0.62251        0.62926        0.62243        0.55639        0.44868        0.45986        0.36053        0.23719        0.18881        0.14928        0.13540        0.13596        0.10579        0.13338        0.26168        0.27953        0.36092        0.38720        0.43687        0.50572        0.54275        0.54685        0.47655        0.44316        0.39048        0.34847        0.30844        0.26851        0.21983        0.21032        0.18983        0.21542        0.19699        0.28788        0.34499        0.37773        0.43196        0.45677        0.47730        0.42011        0.38829        0.40793        0.36348        0.28243        0.26278        0.22902        0.23209        0.20444        0.24090        0.24498        0.33041        0.37136        0.38644        0.47117        0.42648        0.43372        0.43132        0.39963        0.34356        0.31961        0.28548        0.27595        0.25239        0.28271        0.28540        0.31154        0.31395        0.33215        0.31972        0.40489        0.41815        0.37991        0.34593        0.36835        0.28805        0.28277        0.26988        0.29581        0.27524        0.28872        0.30140        0.31804        0.34177        0.36447        0.37211        0.36598        0.36119        0.30416        0.32718        0.27802        0.25096        0.30266        0.29839        0.31540        0.31203        0.31951        0.34240        0.32062        0.32076        0.29728        0.30770        0.27969        0.29293        0.26457        0.29291        0.29452        0.28582        0.30740        0.31993        0.32705        0.27347        0.30671        0.27822        0.28337        0.26722        0.22395        0.28159        0.28501        0.34057        0.31365        0.31889        0.31654        0.32089        0.28300        0.31607        0.32721        0.27453        0.26398        0.30498        0.29100        0.34195        0.33148        0.33644        0.33391        0.29249        0.27559        0.29315        0.24441        0.22187        0.29742        0.31449        0.30851        0.29428        0.30876        0.28602        0.33993        0.33548        0.26076        0.23431        0.28752        0.31323        0.28854        0.31490        0.33199        0.32955        0.30641        0.30076        0.33658        0.30807        0.27474        0.25455        0.30749        0.35076        0.37979        0.28918        0.26671        0.26532        0.29720        0.23465        0.28900        0.25891        0.25137        0.32467        0.33272        0.34691        0.31630        0.25976        0.25547        0.26391        0.25024        0.23021        0.23643        0.30858        0.29577        0.21940        0.32474        0.32298        0.25556        0.26319        0.20197        0.18981        0.24041        0.19527        0.22095        0.23498        0.22338        0.18755        0.26755        0.36069        0.32852        0.34215        0.24175        0.19679        0.18066        0.24669        0.25317        0.13937        0.20581        0.24735        0.15630        0.18251        0.13986        0.11374        0.17152        0.10634       -0.10043       -0.61124
2.496796 2.470750 2.444844 2.419080 2.393457 2.367974 2.342633 2.317433 2.292373 2.267455 2.242678 2.218042 2.193546 2.169192 2.144979 2.120907 2.096976 2.073185 2.049536 2.026028 2.002661 1.979435 1.956350 1.933406 1.910603 1.887941 1.865420 1.843040 1.820801 1.798703 1.776746 1.754930 1.733256 1.711722 1.690329 1.669077 1.647966 1.626997 1.606168 1.585480 1.564933 1.544528 1.524263 1.504139 1.484157 1.464315 1.444614 1.425055 1.405636 1.386358 1.367222 1.576609 1.972763 1.558177 1.089827 0.960106 0.395185 0.784140 0.524141 0.795100 0.744540 0.760502 0.713418 0.681391 0.543680 0.502487 0.460347 0.409352 0.208979 0.353547 0.190216 0.295176 0.215498 0.177074 0.142822 0.017594 0.025684 -0.000980 -0.061623 0.108660 0.202367 0.176186 0.148814 0.317620 0.180905 0.477390 0.571033 0.557085 0.585979 0.837476 0.786518 0.896140 0.856917 0.947597 0.916314 0.899329 1.194670 1.045355 1.094052 0.892722 0.892470 0.757787 0.623004 0.750703 0.681216 0.450909 0.305070 0.239896 0.230949 0.141824 0.102336 0.140455 0.093667 0.134620 0.058165 0.253526 0.363215 0.343058 0.453072 0.536676 0.426231 0.549031 0.684400 0.694484 0.753472 0.681826 0.692305 0.661409 0.592066 0.524760 0.396121 0.271485 0.216040 0.082440 0.127412 -0.047497 -0.031967 -0.056934 -0.044691 -0.009410 0.150109 0.071275 0.266811 0.289029 0.337858 0.419981 0.501347 0.487199 0.488795 0.498479 0.320381 0.304378 0.281180 0.097403 0.055312 -0.024549 -0.006873 -0.032524 -0.067433 -0.080526 0.030419 0.068993 0.131772 0.176320 0.227935 0.290540 0.313138 0.399240 0.383709 0.282952 0.236157 0.223190 0.173514 0.124596 0.106269 0.021016 0.018302 0.043007 0.003471 0.074678 0.154808 0.144403 0.244412 0.246141 0.302643 0.195905 0.214153 0.153227 0.204687 0.115337 0.046330 0.014027 0.001762 -0.002631 -0.033039 0.037486 0.025175 0.140712 0.145957 0.169995 0.247275 0.177889 0.172114 0.175352 0.131885 0.070701 0.032174 0.052791 -0.009645 -0.005842 0.018023 0.048462 0.055504 0.052598 0.064475 0.059436 0.152582 0.156297 0.076537 0.082944 0.063086 0.008949 -0.005217 0.013258 0.014310 0.012548 0.011362 0.031170 0.057026 0.076590 0.078620 0.092756 0.123120 0.064857 0.025057 0.057481 -0.025616 -0.002227 0.046654 0.010794 0.057761 0.053220 0.036055 0.084918 0.062759 0.037027 0.049491 0.020547 0.034066 0.021222 -0.000010 0.058672 0.005901 0.031510 0.062150 0.069619 0.035014 0.048565 0.042783 0.036897 0.022476 -0.005826 -0.015219 0.033259 0.058526 0.093821 0.067549 0.078426 0.071820 0.083443 0.037656 0.092827 0.091812 0.015036 0.029652 0.073443 0.064819 0.093030 0.089310 0.144229 0.092981 0.063282 0.020539 0.073309 -0.024223 0.006521 0.077831 0.073498 0.071428 0.033774 0.063599 0.032374 0.116122 0.068603 -0.021458 -0.036163 0.036717 0.078506 0.024221 0.028428 0.085016 0.079733 0.024028 0.049359 0.073695 0.041153 0.021042 -0.030203 0.056619 0.101275 0.085240 0.005200 -0.021251 -0.022941 0.045422 -0.076889 0.032946 -0.039196 -0.022327 0.038952 0.070918 0.017604 -0.001009 -0.052179 -0.036539 -0.063159 -0.027274 -0.081092 -0.074707 0.030694 0.035836 -0.075440 0.061563 0.013506 -0.049398 0.030172 -0.095896 -0.073388 -0.038964 -0.050353 -0.025047 -0.011450 -0.001223 -0.073986 0.038157 0.205559 0.007468 0.155447 0.043807 0.193972 0.172845 0.268761 0.255782 0.118970 0.199981 0.280875 0.110094 0.205818 0.130108 0.128315 0.229228 0.105492 -0.618217
0.072396 0.072898 0.074404 0.076914 0.080427 0.084942 0.090459 0.096974 0.104487 0.112994 0.122493 0.132978 0.144444 0.156886 0.170295 0.184662 0.199976 0.216225 0.233393 0.251463 0.270416 0.290228 0.310874 0.332323 0.354544 0.377498 0.401146 0.425440 0.450331 0.475763 0.501674 0.527997 0.554661 0.581586 0.608688 0.635875 0.663049 0.690104 0.716931 0.743409 0.769413 0.794813 0.819468 0.843234 0.865961 0.887492 0.907664 0.926311 0.943264 0.958347 0.971385 0.982201 0.990616 0.996453 0.999539 0.999700 0.996772 0.990595 0.981019 0.967903 0.951120 0.930556 0.906116 0.877720 0.845312 0.808859 0.768351 0.723809 0.675281 0.622849 0.566625 0.506760 0.443441 0.376893 0.307379 0.235204 0.160713 0.084291 0.006362 0.072610 0.152124 0.231644 0.310599 0.388393 0.464400 0.537976 0.608459 0.675180 0.737463 0.794637 0.846045 0.891044 0.929023 0.959408 0.981670 0.995336 1.000000 0.995329 0.981075 0.957083 0.923300 0.879780 0.826693 0.764332 0.693113 0.613579 0.526403 0.432386 0.332453 0.227649 0.119131 0.008160 0.103913 0.215662 0.325598 0.432195 0.533907 0.629190 0.716528 0.794462 0.861612 0.916707 0.958613 0.986358 0.999159 0.996447 0.977889 0.943405 0.893186 0.827704 0.747719 0.654279 0.548718 0.432646 0.307929 0.176664 0.041159 0.096112 0.232551 0.365477 0.492185 0.609997 0.716327 0.808734 0.884992 0.943143 0.981560 0.998995 0.994631 0.968120 0.919613 0.849779 0.759817 0.651447 0.526894 0.388854 0.240446 0.085153 0.073253 0.230801 0.383414 0.527017 0.657645 0.771565 0.865383 0.936158 0.981505 0.999688 0.989700 0.951321 0.885159 0.792667 0.676132 0.538640 0.384012 0.216713 0.041736 0.135539 0.309502 0.474492 0.624987 0.755781 0.862194 0.940239 0.986792 0.999734 0.978069 0.921998 0.832956 0.713612 0.567814 0.400485 0.217486 0.025420 0.168588 0.357159 0.532930 0.688851 0.818474 0.916245 0.977753 0.999955 0.981353 0.922109 0.824098 0.690884 0.527630 0.340922 0.138534 0.070884 0.278155 0.473984 0.649370 0.796029 0.906814 0.976079 0.999998 0.976809 0.906968 0.793195 0.640415 0.455589 0.247424 0.025997 0.197714 0.412373 0.606856 0.770831 0.895342 0.973315 1.000000 0.973300 0.893964 0.765633 0.594730 0.390182 0.162991 0.074324 0.308404 0.525791 0.713709 0.860841 0.958036 0.998916 0.980345 0.902713 0.770011 0.589690 0.372300 0.130912 0.119627 0.363596 0.585377 0.770463 0.906449 0.983886 0.996999 0.944168 0.828151 0.656022 0.438804 0.190810 0.071239 0.329329 0.565377 0.762519 0.906327 0.985927 0.994868 0.931714 0.800282 0.609488 0.372834 0.107492 0.166883 0.429590 0.660452 0.841368 0.957788 0.999937 0.963713 0.851146 0.670394 0.435247 0.164131 0.121269 0.397708 0.642283 0.834341 0.957269 0.999998 0.958080 0.834231 0.638262 0.386408 0.100057 0.196018 0.475751 0.714107 0.889335 0.985010 0.991667 0.907817 0.740278 0.503731 0.219530 0.086147 0.384668 0.647611 0.849508 0.970348 0.997656 0.927877 0.766931 0.529835 0.239411 0.075826 0.384401 0.655034 0.859812 0.977144 0.994122 0.908059 0.726987 0.469049 0.160799 0.165460 0.474989 0.734338 0.914970 0.996506 0.969125 0.834867 0.607669 0.312045 0.019439 0.349682 0.641176 0.860289 0.981212 0.989117 0.882102 0.671678 0.381700 0.045770 0.296537 0.604329 0.840274 0.975209 0.991852 0.887165 0.673010 0.374975 0.029458 0.320682 0.631411 0.863060 0.985489 0.982122 0.852356 0.611947 0.291267 0.068363
1.000000 1.000000 1.000000 1.000000 1.000000 1.000000 1.000000 1.000000 1.000000 1.000000 1.000000 1.000000 1.000000 1.000000 1.000000 1.000000 1.000000 1.000000 1.000000 1.000000 1.000000 1.000000 1.000000 1.000000 1.000000 1.000000 1.000000 1.000000 1.000000 1.000000 1.000000 1.000000 1.000000 1.000000 1.000000 1.000000 1.000000 1.000000 1.000000 1.000000 1.000000 1.000000 1.000000 1.000000 1.000000 1.000000 1.000000 1.000000 1.000000 1.000000 1.000000 1.000000 0.925401 0.925401 0.925401 0.914798 0.914798 0.914798 0.914798 0.914798 0.914798 0.914798 0.914798 0.914798 0.914798 0.914798 0.914798 0.914798 0.914798 0.914798 0.914798 0.914798 0.914798 0.914798 0.914798 0.914798 0.914798 0.914798 0.914798 0.914798 0.914798 0.914798 0.914798 0.914798 0.914798 0.914798 0.914798 0.914798 0.914798 0.914798 0.914798 0.914798 0.914798 0.914798 0.914798 0.914798 0.914798 0.949963 0.949359 0.950031 0.950928 0.951021 0.950660 0.948565 0.947948 0.947896 0.957000 0.957917 0.961048 0.962390 0.963599 0.965017 0.966399 0.967705 0.967028 0.965873 0.963762 0.961965 0.960206 0.957374 0.956219 0.958832 0.959687 0.960086 0.960813 0.959266 0.959843 0.959587 0.958859 0.958108 0.957297 0.956814 0.956585 0.956971 0.957324 0.958286 0.960773 0.961630 0.961850 0.961820 0.961756 0.962762 0.963762 0.965499 0.961293 0.962299 0.962118 0.959766 0.966523 0.963339 0.963987 0.964497 0.965893 0.966138 0.958198 0.954174 0.943547 0.942247 0.936209 0.927376 0.923354 0.924959 0.927477 0.929052 0.929454 0.924558 0.924663 0.921006 0.917783 0.921193 0.919200 0.917635 0.919209 0.920369 0.920781 0.919620 0.918230 0.912541 0.906639 0.905780 0.909225 0.913145 0.915039 0.915664 0.913896 0.877254 0.880268 0.886823 0.883490 0.875523 0.871374 0.868496 0.873465 0.875227 0.878547 0.877764 0.867264 0.852440 0.838871 0.828431 0.825803 0.827227 0.825465 0.829168 0.825804 0.818526 0.830946 0.818040 0.831191 0.841283 0.832227 0.832918 0.831737 0.827395 0.814630 0.814980 0.817981 0.809645 0.810299 0.809527 0.805564 0.798936 0.803635 0.779095 0.768394 0.762708 0.765026 0.769417 0.761352 0.758332 0.753700 0.748359 0.747845 0.754274 0.765228 0.757814 0.750462 0.726787 0.719069 0.720874 0.725194 0.729582 0.724948 0.704403 0.705892 0.645492 0.665445 0.671042 0.654042 0.653294 0.644295 0.640770 0.640078 0.636842 0.640731 0.648517 0.660874 0.680824 0.679590 0.678103 0.672465 0.649539 0.648455 0.637740 0.644426 0.624947 0.617468 0.643206 0.621183 0.617883 0.610049 0.620549 0.639902 0.616153 0.614037 0.614824 0.607125 0.609548 0.610193 0.600775 0.587522 0.600931 0.621432 0.612458 0.586182 0.588356 0.579434 0.597000 0.560277 0.562824 0.543691 0.512989 0.520073 0.533166 0.534690 0.523533 0.509209 0.503250 0.534625 0.547303 0.581041 0.562437 0.550254 0.506867 0.524649 0.521973 0.524075 0.464004 0.458296 0.443504 0.429798 0.377845 0.368500 0.371656 0.357682 0.338784 0.303552 0.303635 0.307596 0.328349 0.319489 0.309180 0.293822 0.314268 0.310188 0.294675 0.235423 0.217592 0.203336 0.189751 0.192614 0.159183 0.181936 0.251345 0.253703 0.253703 0.253703 0.253703 0.253703 0.253703 0.263050 0.263050 0.263050 0.263050 0.263050 0.263050 0.263050 0.263050 0.263050 0.276565 0.276565 0.276565 0.276565 0.276565 0.276565 0.276565 0.276565 0.276565 0.276565 0.276565 0.276565 0.276565 0.276565
0.000000 0.000000 0.000000 0.000000 0.000000 0.000000 0.000000 0.000000 0.000000 0.000000 0.000000 0.000000 0.000000 0.000000 0.000000 0.000000 0.000000 0.000000 0.000000 0.000000 0.000000 0.000000 0.000000 0.000000 0.000000 7.000000 4.000000 0.000000 0.000000 0.000000 0.000000 0.000000 0.000000 0.000000 0.000000 0.000000 0.000000 0.000000 0.000000 0.000000 0.000000 0.000000 0.000000 0.000000 0.000000 0.000000 0.000000 0.000000 0.000000 0.000000 0.000000 0.000000 0.180334 0.180334 0.180334 0.197066 0.197066 0.197066 0.197066 0.197066 0.197066 0.197066 0.197066 0.197066 0.197066 0.197066 0.197066 0.197066 0.197066 0.197066 0.197066 0.197066 0.197066 0.197066 0.197066 0.197066 0.197066 0.197066 0.197066 0.197066 0.197066 0.197066 0.197066 0.197066 0.197066 0.197066 0.197066 0.197066 0.197066 0.197066 0.197066 0.197066 0.197066 0.197066 0.197066 0.197066 0.197066 0.230940 0.230940 0.230940 0.230940 0.230940 0.230940 0.230940 0.230940 0.230940 0.230940 0.230940 0.230940 0.230940 0.230940 0.230940 0.230940 0.230940 0.230940 0.230940 0.230940 0.230940 0.230940 0.230940 0.230940 0.230940 0.230940 0.230940 0.230940 0.244339 0.244339 0.244339 0.244339 0.244339 0.244339 0.244339 0.244339 0.244339 0.244339 0.244339 0.244339 0.244339 0.244339 0.244339 0.244339 0.244339 0.244339 0.244339 0.244339 0.244339 0.244339 0.244339 0.251976 0.251976 0.251976 0.251976 0.251976 0.251976 0.251976 0.251976 0.251976 0.251976 0.251976 0.251976 0.251976 0.251976 0.251976 0.251976 0.251976 0.251976 0.251976 0.251976 0.264906 0.264906 0.264906 0.264906 0.264906 0.264906 0.264906 0.264906 0.264906 0.264906 0.264906 0.264906 0.264906 0.264906 0.264906 0.264906 0.264906 0.256074 0.256074 0.256074 0.256074 0.256074 0.256074 0.256074 0.256074 0.256074 0.256074 0.256074 0.256074 0.256074 0.256074 0.256074 0.256074 0.256074 0.264906 0.264906 0.264906 0.264906 0.264906 0.264906 0.264906 0.264906 0.264906 0.264906 0.264906 0.264906 0.264906 0.264906 0.264906 0.264906 0.264906 0.264906 0.264906 0.264906 0.264906 0.264906 0.264906 0.264906 0.264906 0.264906 0.264906 0.264906 0.264906 0.264906 0.264906 0.264906 0.264906 0.264906 0.264906 0.264906 0.264906 0.264906 0.264906 0.264906 0.264906 0.264906 0.269680 0.269680 0.269680 0.269680 0.269680 0.269680 0.269680 0.269680 0.269680 0.269680 0.269680 0.269680 0.264906 0.264906 0.264906 0.264906 0.264906 0.264906 0.264906 0.264906 0.264906 0.264906 0.264906 0.264906 0.260378 0.260378 0.260378 0.260378 0.260378 0.260378 0.260378 0.260378 0.260378 0.260378 0.260378 0.260378 0.264906 0.264906 0.264906 0.264906 0.264906 0.264906 0.264906 0.264906 0.264906 0.264906 0.264906 0.269680 0.269680 0.269680 0.269680 0.269680 0.269680 0.269680 0.269680 0.269680 0.269680 0.264906 0.264906 0.264906 0.264906 0.264906 0.264906 0.264906 0.264906 0.264906 0.264906 0.260378 0.260378 0.260378 0.260378 0.260378 0.260378 0.260378 0.260378 0.260378 0.260378 0.256074 0.256074 0.256074 0.256074 0.256074 0.256074 0.256074 0.256074 0.256074 0.256074 0.260378 0.260378 0.260378 0.260378 0.260378 0.260378 0.260378 0.260378 0.260378 0.256074 0.256074 0.256074 0.256074 0.256074 0.256074 0.256074 0.256074 0.256074 0.251976 0.251976 0.251976 0.251976 0.251976 0.251976 0.251976 0.251976 0.251976 0.251976 0.251976 0.251976 0.251976 0.251976
