# Output from CTFFind version 4.1.9, run on 2019-11-03 20:09:40
# Input file: stack6_bm3d_averaged_1_6.5_0_2500_half.mrc ; Number of micrographs: 1
# Pixel size: 3.000 Angstroms ; acceleration voltage: 300.0 keV ; spherical aberration: 0.00 mm ; amplitude contrast: 0.07
# Box size: 512 pixels ; min. res.: 30.0 Angstroms ; max. res.: 5.0 Angstroms ; min. def.: 5000.0 um; max. def. 50000.0 um; num. frames averaged: 1
# 6 lines per micrograph: #1 - spatial frequency (1/Angstroms); #2 - 1D rotational average of spectrum (assuming no astigmatism); #3 - 1D rotational average of spectrum; #4 - CTF fit; #5 - cross-correlation between spectrum and CTF fit; #6 - 2sigma of expected cross correlation of noise
0.000000 0.000651 0.001302 0.001953 0.002604 0.003255 0.003906 0.004557 0.005208 0.005859 0.006510 0.007161 0.007812 0.008464 0.009115 0.009766 0.010417 0.011068 0.011719 0.012370 0.013021 0.013672 0.014323 0.014974 0.015625 0.016276 0.016927 0.017578 0.018229 0.018880 0.019531 0.020182 0.020833 0.021484 0.022135 0.022786 0.023438 0.024089 0.024740 0.025391 0.026042 0.026693 0.027344 0.027995 0.028646 0.029297 0.029948 0.030599 0.031250 0.031901 0.032552 0.033203 0.033854 0.034505 0.035156 0.035807 0.036458 0.037109 0.037760 0.038411 0.039062 0.039714 0.040365 0.041016 0.041667 0.042318 0.042969 0.043620 0.044271 0.044922 0.045573 0.046224 0.046875 0.047526 0.048177 0.048828 0.049479 0.050130 0.050781 0.051432 0.052083 0.052734 0.053385 0.054036 0.054688 0.055339 0.055990 0.056641 0.057292 0.057943 0.058594 0.059245 0.059896 0.060547 0.061198 0.061849 0.062500 0.063151 0.063802 0.064453 0.065104 0.065755 0.066406 0.067057 0.067708 0.068359 0.069010 0.069661 0.070312 0.070964 0.071615 0.072266 0.072917 0.073568 0.074219 0.074870 0.075521 0.076172 0.076823 0.077474 0.078125 0.078776 0.079427 0.080078 0.080729 0.081380 0.082031 0.082682 0.083333 0.083984 0.084635 0.085286 0.085938 0.086589 0.087240 0.087891 0.088542 0.089193 0.089844 0.090495 0.091146 0.091797 0.092448 0.093099 0.093750 0.094401 0.095052 0.095703 0.096354 0.097005 0.097656 0.098307 0.098958 0.099609 0.100260 0.100911 0.101562 0.102214 0.102865 0.103516 0.104167 0.104818 0.105469 0.106120 0.106771 0.107422 0.108073 0.108724 0.109375 0.110026 0.110677 0.111328 0.111979 0.112630 0.113281 0.113932 0.114583 0.115234 0.115885 0.116536 0.117188 0.117839 0.118490 0.119141 0.119792 0.120443 0.121094 0.121745 0.122396 0.123047 0.123698 0.124349 0.125000 0.125651 0.126302 0.126953 0.127604 0.128255 0.128906 0.129557 0.130208 0.130859 0.131510 0.132161 0.132812 0.133464 0.134115 0.134766 0.135417 0.136068 0.136719 0.137370 0.138021 0.138672 0.139323 0.139974 0.140625 0.141276 0.141927 0.142578 0.143229 0.143880 0.144531 0.145182 0.145833 0.146484 0.147135 0.147786 0.148438 0.149089 0.149740 0.150391 0.151042 0.151693 0.152344 0.152995 0.153646 0.154297 0.154948 0.155599 0.156250 0.156901 0.157552 0.158203 0.158854 0.159505 0.160156 0.160807 0.161458 0.162109 0.162760 0.163411 0.164062 0.164714 0.165365 0.166016 0.166667 0.167318 0.167969 0.168620 0.169271 0.169922 0.170573 0.171224 0.171875 0.172526 0.173177 0.173828 0.174479 0.175130 0.175781 0.176432 0.177083 0.177734 0.178385 0.179036 0.179688 0.180339 0.180990 0.181641 0.182292 0.182943 0.183594 0.184245 0.184896 0.185547 0.186198 0.186849 0.187500 0.188151 0.188802 0.189453 0.190104 0.190755 0.191406 0.192057 0.192708 0.193359 0.194010 0.194661 0.195312 0.195964 0.196615 0.197266 0.197917 0.198568 0.199219 0.199870 0.200521 0.201172 0.201823 0.202474 0.203125 0.203776 0.204427 0.205078 0.205729 0.206380 0.207031 0.207682 0.208333 0.208984 0.209635 0.210286 0.210938 0.211589 0.212240 0.212891 0.213542 0.214193 0.214844 0.215495 0.216146 0.216797 0.217448 0.218099 0.218750 0.219401 0.220052 0.220703 0.221354 0.222005 0.222656 0.223307 0.223958 0.224609 0.225260 0.225911 0.226562 0.227214 0.227865 0.228516 0.229167 0.229818 0.230469 0.231120 0.231771 0.232422 0.233073 0.233724 0.234375 0.235026 0.235677
       0.32357        0.32357        0.32357        0.32357        0.32357        0.32357        0.32357        0.32357        0.32357        0.32357        0.32357        0.32357        0.32357        0.32357        0.32357        0.32357        0.32357        0.32357        0.32357        0.32357        0.32357        0.32357        0.32357        0.32357        0.32357        0.32357        0.32357        0.32357        0.32357        0.32357        0.32357        0.32357        0.32357        0.32357        0.32357        0.32357        0.32357        0.32357        0.32357        0.32357        0.32357        0.32357        0.32357        0.32357        0.32357        0.32357        0.32357        0.32357        0.32357        0.32357        0.32357        0.59745        0.71447        0.36098        0.17650        0.13418       -0.13722        0.11093        0.03619        0.03893        0.09217        0.30805        0.31404        0.24062        0.14343       -0.03864       -0.01201        0.04711       -0.10565       -0.11248       -0.07507       -0.08637       -0.19347       -0.12532       -0.23736       -0.25558       -0.25157       -0.31284       -0.38737       -0.31998       -0.22731       -0.19567       -0.29969       -0.22004       -0.26694       -0.20865       -0.14075       -0.08452       -0.05275        0.00861        0.05121        0.14074        0.18257        0.22351        0.34264        0.40888        0.35810        0.47348        0.54534        0.55406        0.63387        0.56180        0.59194        0.60062        0.60629        0.60417        0.55641        0.58669        0.54448        0.39281        0.34239        0.37230        0.34420        0.20395        0.18589        0.15806        0.10287        0.10534        0.02828        0.08848        0.06969        0.03059        0.11731        0.17620        0.26759        0.35219        0.35615        0.38333        0.44857        0.48485        0.41879        0.64384        0.54449        0.48162        0.57145        0.50004        0.54813        0.51060        0.37984        0.31752        0.29813        0.24967        0.23973        0.20694        0.18707        0.15878        0.24328        0.22212        0.25268        0.22121        0.27168        0.32909        0.33767        0.44770        0.44135        0.42208        0.41938        0.47478        0.43497        0.42232        0.39946        0.40050        0.33719        0.28526        0.26239        0.26081        0.25943        0.20559        0.18533        0.23977        0.25185        0.28142        0.34919        0.37501        0.42245        0.40524        0.42991        0.47598        0.46423        0.42874        0.38732        0.41610        0.37410        0.32721        0.33516        0.32186        0.26437        0.27984        0.27678        0.24710        0.31428        0.28965        0.30756        0.32941        0.38897        0.41550        0.40934        0.43696        0.38254        0.42371        0.39557        0.31825        0.29309        0.25861        0.27390        0.23987        0.21243        0.30422        0.36345        0.32858        0.30135        0.35616        0.27868        0.33716        0.39216        0.38092        0.36325        0.38203        0.33778        0.35680        0.33546        0.29713        0.28439        0.25424        0.30775        0.32092        0.33507        0.35291        0.38424        0.37230        0.37268        0.32489        0.35196        0.35292        0.33551        0.32598        0.29350        0.28774        0.26166        0.33351        0.33427        0.33556        0.30563        0.34105        0.35229        0.33518        0.35278        0.33740        0.30374        0.29900        0.30231        0.27322        0.26004        0.25091        0.24913        0.26821        0.25811        0.29885        0.28156        0.32020        0.34366        0.26317        0.29733        0.28030        0.23013        0.28306        0.26515        0.26450        0.29340        0.31820        0.31736        0.30946        0.30824        0.30486        0.33286        0.34743        0.29410        0.32264        0.31713        0.36670        0.28394        0.27410        0.27950        0.30853        0.32597        0.34687        0.35445        0.30231        0.23217        0.29492        0.25747        0.25157        0.25435        0.25951        0.29499        0.22810        0.30054        0.32291        0.35987        0.31542        0.30114        0.26592        0.28762        0.28892        0.24847        0.27149        0.27486        0.30044        0.34472        0.33342        0.29012        0.30239        0.32769        0.26330        0.23232        0.18657        0.31556        0.33558        0.34651        0.32614        0.29797        0.23320        0.21426        0.25751        0.25809        0.26118        0.28018        0.28872        0.24310        0.26235        0.25307        0.30190        0.26812        0.26272        0.26546        0.25365        0.19954        0.25744        0.24474        0.22292        0.28191        0.24970        0.25856        0.21820        0.20397        0.26972        0.25950        0.25210        0.17531        0.15025        0.31614        0.22055        0.22483        0.27894        0.17191        0.16213        0.17334        0.25294        0.23240        0.13272       -0.06914       -0.59200       -0.93859
2.366741 2.346622 2.326593 2.306653 2.286803 2.267042 2.247371 2.227790 2.208299 2.188897 2.169585 2.150363 2.131231 2.112188 2.093234 2.074371 2.055597 2.036913 2.018319 1.999814 1.981399 1.963073 1.944838 1.926692 1.908636 1.890669 1.872792 1.855005 1.837307 1.819700 1.802182 1.784753 1.767414 1.750165 1.733006 1.715936 1.698956 1.682066 1.665266 1.648555 1.631934 1.615402 1.598960 1.582608 1.566346 1.550173 1.534090 1.518097 1.502193 1.486379 1.470655 1.830739 2.166024 1.499942 1.328270 1.091073 0.521931 0.921875 0.814724 0.837650 0.702385 1.396459 1.198326 1.212761 0.979213 0.614835 0.478620 0.747292 0.586448 0.266059 0.286304 0.483936 0.236460 0.258422 0.109692 -0.000872 -0.014953 -0.008645 -0.310224 -0.158571 0.005504 -0.016615 -0.089688 -0.016603 -0.118214 -0.101820 0.065293 0.180137 0.246929 0.277816 0.370569 0.614668 0.554243 0.643426 0.824064 1.039319 0.799036 1.231913 1.174424 1.246542 1.350095 1.246745 1.169870 1.343277 1.219099 1.344821 1.183276 1.158260 1.203479 0.955621 0.683855 0.737096 0.785310 0.483325 0.422229 0.364431 0.219062 0.195442 0.039943 0.206007 0.163475 0.037986 0.120783 0.229386 0.347955 0.606413 0.602837 0.592284 0.696998 0.877413 0.585193 1.022207 1.032443 0.764992 0.920717 0.761021 0.857150 0.895506 0.627584 0.395838 0.415014 0.358639 0.217494 0.210880 0.168206 -0.011749 0.224960 0.193483 0.249330 0.137181 0.257828 0.328751 0.283695 0.497080 0.597903 0.532597 0.362146 0.663166 0.553432 0.448827 0.521639 0.440498 0.290605 0.327921 0.128164 0.203602 0.033970 0.209346 -0.062868 0.057255 0.053024 0.251599 0.070353 0.391146 0.338204 0.392440 0.390995 0.407545 0.575339 0.405585 0.368162 0.420657 0.212641 0.342440 0.132484 0.268509 0.073068 0.108045 0.092009 0.076617 0.049487 0.161183 0.067244 0.156017 0.242375 0.281863 0.338322 0.270835 0.345919 0.262819 0.295992 0.179081 0.101969 0.028103 -0.009987 0.021171 -0.079156 -0.063027 0.119471 0.211739 0.067523 0.112063 0.115341 0.016762 0.180402 0.246690 0.189363 0.207058 0.137487 0.154121 0.115597 0.107135 0.052875 -0.080481 -0.016610 0.142023 0.029266 0.143033 0.120030 0.227245 0.201725 0.177956 0.117961 0.190583 0.105536 0.130991 0.110024 0.039968 -0.009027 0.005204 0.133414 0.133016 0.119019 0.057762 0.151514 0.132088 0.059446 0.138814 0.044440 -0.009804 0.024236 0.003190 -0.053027 -0.067973 -0.107876 -0.041527 -0.057685 -0.086183 0.018988 -0.010745 0.069116 0.088198 -0.082166 0.048171 -0.045017 -0.108493 0.037006 -0.051189 -0.070701 0.038337 0.086350 0.029563 0.062353 -0.035849 0.041790 0.157512 -0.002194 -0.023029 0.089895 0.043042 0.126186 -0.072010 -0.039676 -0.025242 0.076057 0.047152 0.081439 0.144456 -0.012938 -0.096809 0.010215 -0.059840 -0.064855 -0.049859 -0.058268 0.028995 -0.166234 0.111817 0.089572 0.181665 0.041063 0.011375 0.001239 0.022751 0.071909 -0.059442 0.028248 0.010249 0.089395 0.119692 0.162919 0.060249 0.116272 0.176878 -0.037569 0.000817 -0.151619 0.195708 0.157119 0.188862 0.145053 0.054008 -0.047843 -0.082972 -0.017965 -0.000173 -0.003903 0.035837 0.071771 -0.052901 -0.002472 0.053358 0.083832 0.054374 0.034706 0.061260 -0.035749 -0.043402 0.035638 0.016004 -0.046764 0.111183 0.018415 -0.003328 0.011525 -0.037612 0.093993 0.131352 0.035104 -0.075019 -0.250200 0.334062 0.494958 0.387149 0.556783 0.269410 0.306672 0.302588 0.537638 0.439229 0.202887 0.143263 -0.870203
0.072396 0.072838 0.074163 0.076371 0.079462 0.083435 0.088289 0.094022 0.100634 0.108122 0.116484 0.125716 0.135815 0.146776 0.158594 0.171262 0.184772 0.199116 0.214282 0.230259 0.247032 0.264586 0.282903 0.301961 0.321739 0.342209 0.363344 0.385111 0.407474 0.430396 0.453833 0.477738 0.502061 0.526747 0.551735 0.576960 0.602354 0.627843 0.653346 0.678779 0.704051 0.729069 0.753731 0.777931 0.801559 0.824499 0.846629 0.867825 0.887956 0.906890 0.924488 0.940610 0.955112 0.967851 0.978680 0.987451 0.994019 0.998237 0.999964 0.999060 0.995388 0.988821 0.979236 0.966518 0.950564 0.931282 0.908590 0.882425 0.852736 0.819493 0.782682 0.742313 0.698416 0.651047 0.600285 0.546238 0.489041 0.428857 0.365881 0.300336 0.232478 0.162594 0.091002 0.018050 0.055883 0.130388 0.205031 0.279348 0.352856 0.425047 0.495396 0.563366 0.628407 0.689964 0.747479 0.800402 0.848190 0.890315 0.926273 0.955588 0.977820 0.992569 0.999485 0.998277 0.988713 0.970632 0.943948 0.908657 0.864842 0.812675 0.752424 0.684454 0.609231 0.527317 0.439375 0.346165 0.248540 0.147440 0.043885 0.061028 0.166143 0.270251 0.372106 0.470437 0.563965 0.651424 0.731572 0.803218 0.865233 0.916578 0.956321 0.983654 0.997916 0.998607 0.985407 0.958192 0.917039 0.862242 0.794319 0.714007 0.622269 0.520285 0.409446 0.291336 0.167716 0.040506 0.088250 0.216406 0.341757 0.462066 0.575119 0.678750 0.770902 0.849658 0.913296 0.960323 0.989521 0.999980 0.991137 0.962795 0.915150 0.848800 0.764752 0.664419 0.549605 0.422480 0.285552 0.141622 0.006269 0.154897 0.300927 0.440980 0.571721 0.689935 0.792613 0.877034 0.940842 0.982127 0.999484 0.992074 0.959665 0.902665 0.822136 0.719788 0.597962 0.459586 0.308120 0.147478 0.018066 0.183983 0.345614 0.498297 0.637510 0.759000 0.858929 0.934004 0.981593 0.999836 0.987727 0.945176 0.873050 0.773168 0.648289 0.502048 0.338864 0.163824 0.017463 0.199040 0.374797 0.538674 0.684877 0.808085 0.903659 0.967832 0.997874 0.992225 0.950588 0.873990 0.764777 0.626575 0.464192 0.283467 0.091080 0.105682 0.299199 0.481803 0.646095 0.785242 0.893285 0.965408 0.998170 0.989698 0.939809 0.850073 0.723801 0.565943 0.382939 0.182460 0.026882 0.235900 0.435226 0.615737 0.768976 0.887568 0.965597 0.998919 0.985421 0.925170 0.820481 0.675864 0.497862 0.294798 0.076395 0.146661 0.363236 0.562304 0.733521 0.867767 0.957665 0.998014 0.986118 0.922006 0.808499 0.651135 0.457938 0.239048 0.006209 0.227834 0.450029 0.647754 0.809529 0.925727 0.989163 0.995583 0.943987 0.836772 0.679681 0.481538 0.253798 0.009912 0.235431 0.467203 0.670938 0.833664 0.944749 0.996643 0.985427 0.911160 0.777971 0.593885 0.370404 0.121820 0.135662 0.384967 0.609279 0.793179 0.923751 0.991510 0.991152 0.922021 0.788260 0.598637 0.366026 0.106581 0.161341 0.418481 0.646035 0.827068 0.947796 0.998685 0.975268 0.878586 0.715243 0.497021 0.240102 0.036101 0.310362 0.561273 0.768927 0.916516 0.991754 0.987952 0.904681 0.747947 0.529842 0.267673 0.017345 0.301778 0.561874 0.775578 0.924413 0.995148 0.981031 0.882517 0.707374 0.470168 0.191118 0.105567 0.393759 0.647693 0.844311 0.965377 0.999256 0.942097 0.798357 0.580554 0.308267 0.006448 0.296823 0.572914 0.795383 0.942524 0.999570 0.960250 0.827572 0.613716 0.339009 0.030078 0.282680 0.568056 0.797160 0.946401 0.999962
1.000000 1.000000 1.000000 1.000000 1.000000 1.000000 1.000000 1.000000 1.000000 1.000000 1.000000 1.000000 1.000000 1.000000 1.000000 1.000000 1.000000 1.000000 1.000000 1.000000 1.000000 1.000000 1.000000 1.000000 1.000000 1.000000 1.000000 1.000000 1.000000 1.000000 1.000000 1.000000 1.000000 1.000000 1.000000 1.000000 1.000000 1.000000 1.000000 1.000000 1.000000 1.000000 1.000000 1.000000 1.000000 1.000000 1.000000 1.000000 1.000000 1.000000 1.000000 1.000000 0.777860 0.777860 0.777860 0.777860 0.777860 0.777860 0.777860 0.760317 0.760317 0.760317 0.760317 0.760317 0.760317 0.760317 0.760317 0.760317 0.760317 0.760317 0.760317 0.760317 0.760317 0.760317 0.760317 0.760317 0.760317 0.760317 0.760317 0.760317 0.760317 0.760317 0.760317 0.760317 0.760317 0.760317 0.760317 0.760317 0.760317 0.760317 0.760317 0.760317 0.760317 0.760317 0.760317 0.760317 0.760317 0.760317 0.760317 0.760317 0.760317 0.760317 0.760317 0.902213 0.903652 0.906651 0.902036 0.903941 0.901801 0.895325 0.898259 0.898074 0.897897 0.898951 0.900582 0.902563 0.909892 0.918794 0.920668 0.927671 0.931127 0.932262 0.932137 0.930782 0.938276 0.935820 0.934059 0.922161 0.925526 0.927403 0.928338 0.927151 0.927268 0.928521 0.929154 0.927050 0.925239 0.923063 0.921295 0.923043 0.922648 0.922833 0.922995 0.923170 0.923071 0.923650 0.919795 0.922052 0.920929 0.917352 0.913944 0.913465 0.914536 0.912886 0.909685 0.904011 0.910285 0.910706 0.910858 0.909748 0.910655 0.911036 0.911757 0.912360 0.909757 0.909801 0.907413 0.909259 0.905645 0.901311 0.896577 0.896657 0.898255 0.904792 0.906872 0.905700 0.903425 0.897027 0.887653 0.886704 0.873790 0.842286 0.844086 0.847458 0.849759 0.850679 0.850196 0.847573 0.842736 0.833026 0.823386 0.827705 0.828556 0.820385 0.814009 0.814768 0.814059 0.821345 0.825763 0.818100 0.815497 0.814955 0.810948 0.810755 0.811555 0.809071 0.803436 0.806012 0.814194 0.814692 0.801188 0.795394 0.792582 0.776704 0.781030 0.787419 0.791825 0.793381 0.789817 0.777303 0.775208 0.769088 0.779501 0.788276 0.786780 0.782244 0.763016 0.720243 0.708674 0.690383 0.692982 0.694357 0.670104 0.667249 0.668540 0.673411 0.620574 0.604050 0.591729 0.591610 0.598931 0.603816 0.597434 0.565677 0.583581 0.581221 0.565900 0.561929 0.535346 0.519875 0.488811 0.491484 0.489406 0.475201 0.451534 0.445811 0.462798 0.472430 0.469353 0.467001 0.438230 0.418274 0.420827 0.416674 0.418563 0.420529 0.429004 0.379363 0.355566 0.339231 0.365604 0.367213 0.366253 0.378618 0.376357 0.372043 0.350407 0.331418 0.315201 0.328210 0.348219 0.355015 0.358224 0.322838 0.309281 0.288301 0.293939 0.337882 0.325283 0.335132 0.333641 0.338304 0.364456 0.343210 0.320415 0.297782 0.340082 0.332843 0.315093 0.293480 0.301821 0.321170 0.322685 0.318020 0.311084 0.359248 0.387406 0.374799 0.377767 0.344836 0.373513 0.413546 0.403443 0.404529 0.418758 0.417690 0.400798 0.357011 0.338983 0.339814 0.315148 0.312024 0.295204 0.280618 0.271898 0.281585 0.303789 0.309242 0.342652 0.316588 0.281873 0.187571 0.258105 0.176470 0.182233 0.182233 0.182233 0.182233 0.182233 0.182233 0.182233 0.182233 0.206286 0.206286 0.206286 0.206286 0.206286 0.206286 0.206286 0.206286 0.206286 0.206286 0.206286 0.206286 0.206286 0.206286 0.206286 0.206286 0.206286 0.206286 0.206286 0.206286 0.206286
0.000000 0.000000 0.000000 0.000000 0.000000 0.000000 0.000000 0.000000 0.000000 0.000000 0.000000 0.000000 0.000000 0.000000 0.000000 0.000000 0.000000 0.000000 0.000000 0.000000 0.000000 0.000000 0.000000 0.000000 0.000000 0.000000 0.000000 0.000000 0.000000 0.000000 0.000000 0.000000 0.000000 0.000000 0.000000 0.000000 0.000000 0.000000 0.000000 0.000000 0.000000 0.000000 0.000000 0.000000 0.000000 0.000000 0.000000 0.000000 0.000000 0.000000 0.000000 0.000000 0.173422 0.173422 0.173422 0.173422 0.173422 0.173422 0.173422 0.191565 0.191565 0.191565 0.191565 0.191565 0.191565 0.191565 0.191565 0.191565 0.191565 0.191565 0.191565 0.191565 0.191565 0.191565 0.191565 0.191565 0.191565 0.191565 0.191565 0.191565 0.191565 0.191565 0.191565 0.191565 0.191565 0.191565 0.191565 0.191565 0.191565 0.191565 0.191565 0.191565 0.191565 0.191565 0.191565 0.191565 0.191565 0.191565 0.191565 0.191565 0.191565 0.191565 0.191565 0.222222 0.222222 0.222222 0.222222 0.222222 0.222222 0.222222 0.222222 0.222222 0.222222 0.222222 0.222222 0.222222 0.222222 0.222222 0.222222 0.222222 0.222222 0.222222 0.222222 0.222222 0.222222 0.222222 0.222222 0.222222 0.222222 0.222222 0.222222 0.222222 0.222222 0.234082 0.234082 0.234082 0.234082 0.234082 0.234082 0.234082 0.234082 0.234082 0.234082 0.234082 0.234082 0.234082 0.234082 0.234082 0.234082 0.234082 0.234082 0.234082 0.234082 0.234082 0.234082 0.234082 0.234082 0.234082 0.244339 0.244339 0.244339 0.244339 0.244339 0.244339 0.244339 0.244339 0.244339 0.244339 0.244339 0.244339 0.244339 0.244339 0.244339 0.244339 0.244339 0.244339 0.244339 0.244339 0.244339 0.248069 0.248069 0.248069 0.248069 0.248069 0.248069 0.248069 0.248069 0.248069 0.248069 0.248069 0.248069 0.248069 0.248069 0.248069 0.248069 0.248069 0.248069 0.248069 0.256074 0.256074 0.256074 0.256074 0.256074 0.256074 0.256074 0.256074 0.256074 0.256074 0.256074 0.256074 0.256074 0.256074 0.256074 0.256074 0.256074 0.256074 0.256074 0.256074 0.256074 0.256074 0.256074 0.256074 0.256074 0.256074 0.256074 0.256074 0.256074 0.256074 0.256074 0.256074 0.256074 0.256074 0.256074 0.256074 0.256074 0.256074 0.256074 0.256074 0.256074 0.256074 0.256074 0.256074 0.256074 0.256074 0.256074 0.256074 0.256074 0.256074 0.256074 0.256074 0.256074 0.256074 0.256074 0.256074 0.256074 0.256074 0.256074 0.256074 0.256074 0.256074 0.260378 0.260378 0.260378 0.260378 0.260378 0.260378 0.260378 0.260378 0.260378 0.260378 0.260378 0.260378 0.260378 0.256074 0.256074 0.256074 0.256074 0.256074 0.256074 0.256074 0.256074 0.256074 0.256074 0.256074 0.256074 0.256074 0.260378 0.260378 0.260378 0.260378 0.260378 0.260378 0.260378 0.260378 0.260378 0.260378 0.260378 0.260378 0.251976 0.251976 0.251976 0.251976 0.251976 0.251976 0.251976 0.251976 0.251976 0.251976 0.251976 0.251976 0.256074 0.256074 0.256074 0.256074 0.256074 0.256074 0.256074 0.256074 0.256074 0.256074 0.256074 0.251976 0.251976 0.251976 0.251976 0.251976 0.251976 0.251976 0.251976 0.251976 0.251976 0.251976 0.260378 0.260378 0.260378 0.260378 0.260378 0.260378 0.260378 0.260378 0.260378 0.260378 0.244339 0.244339 0.244339 0.244339 0.244339 0.244339 0.244339 0.244339 0.244339 0.244339 0.244339 0.244339 0.244339 0.244339 0.244339 0.244339 0.244339 0.244339 0.244339 0.244339 0.244339
