# Output from CTFFind version 4.1.9, run on 2019-11-02 17:47:16
# Input file: stack1_bm3d_averaged_1_0.5_0_1500_half.mrc ; Number of micrographs: 1
# Pixel size: 3.000 Angstroms ; acceleration voltage: 300.0 keV ; spherical aberration: 0.00 mm ; amplitude contrast: 0.07
# Box size: 512 pixels ; min. res.: 30.0 Angstroms ; max. res.: 5.0 Angstroms ; min. def.: 5000.0 um; max. def. 50000.0 um; num. frames averaged: 1
# 6 lines per micrograph: #1 - spatial frequency (1/Angstroms); #2 - 1D rotational average of spectrum (assuming no astigmatism); #3 - 1D rotational average of spectrum; #4 - CTF fit; #5 - cross-correlation between spectrum and CTF fit; #6 - 2sigma of expected cross correlation of noise
0.000000 0.000651 0.001302 0.001953 0.002604 0.003255 0.003906 0.004557 0.005208 0.005859 0.006510 0.007161 0.007812 0.008464 0.009115 0.009766 0.010417 0.011068 0.011719 0.012370 0.013021 0.013672 0.014323 0.014974 0.015625 0.016276 0.016927 0.017578 0.018229 0.018880 0.019531 0.020182 0.020833 0.021484 0.022135 0.022786 0.023438 0.024089 0.024740 0.025391 0.026042 0.026693 0.027344 0.027995 0.028646 0.029297 0.029948 0.030599 0.031250 0.031901 0.032552 0.033203 0.033854 0.034505 0.035156 0.035807 0.036458 0.037109 0.037760 0.038411 0.039062 0.039714 0.040365 0.041016 0.041667 0.042318 0.042969 0.043620 0.044271 0.044922 0.045573 0.046224 0.046875 0.047526 0.048177 0.048828 0.049479 0.050130 0.050781 0.051432 0.052083 0.052734 0.053385 0.054036 0.054688 0.055339 0.055990 0.056641 0.057292 0.057943 0.058594 0.059245 0.059896 0.060547 0.061198 0.061849 0.062500 0.063151 0.063802 0.064453 0.065104 0.065755 0.066406 0.067057 0.067708 0.068359 0.069010 0.069661 0.070312 0.070964 0.071615 0.072266 0.072917 0.073568 0.074219 0.074870 0.075521 0.076172 0.076823 0.077474 0.078125 0.078776 0.079427 0.080078 0.080729 0.081380 0.082031 0.082682 0.083333 0.083984 0.084635 0.085286 0.085938 0.086589 0.087240 0.087891 0.088542 0.089193 0.089844 0.090495 0.091146 0.091797 0.092448 0.093099 0.093750 0.094401 0.095052 0.095703 0.096354 0.097005 0.097656 0.098307 0.098958 0.099609 0.100260 0.100911 0.101562 0.102214 0.102865 0.103516 0.104167 0.104818 0.105469 0.106120 0.106771 0.107422 0.108073 0.108724 0.109375 0.110026 0.110677 0.111328 0.111979 0.112630 0.113281 0.113932 0.114583 0.115234 0.115885 0.116536 0.117188 0.117839 0.118490 0.119141 0.119792 0.120443 0.121094 0.121745 0.122396 0.123047 0.123698 0.124349 0.125000 0.125651 0.126302 0.126953 0.127604 0.128255 0.128906 0.129557 0.130208 0.130859 0.131510 0.132161 0.132812 0.133464 0.134115 0.134766 0.135417 0.136068 0.136719 0.137370 0.138021 0.138672 0.139323 0.139974 0.140625 0.141276 0.141927 0.142578 0.143229 0.143880 0.144531 0.145182 0.145833 0.146484 0.147135 0.147786 0.148438 0.149089 0.149740 0.150391 0.151042 0.151693 0.152344 0.152995 0.153646 0.154297 0.154948 0.155599 0.156250 0.156901 0.157552 0.158203 0.158854 0.159505 0.160156 0.160807 0.161458 0.162109 0.162760 0.163411 0.164062 0.164714 0.165365 0.166016 0.166667 0.167318 0.167969 0.168620 0.169271 0.169922 0.170573 0.171224 0.171875 0.172526 0.173177 0.173828 0.174479 0.175130 0.175781 0.176432 0.177083 0.177734 0.178385 0.179036 0.179688 0.180339 0.180990 0.181641 0.182292 0.182943 0.183594 0.184245 0.184896 0.185547 0.186198 0.186849 0.187500 0.188151 0.188802 0.189453 0.190104 0.190755 0.191406 0.192057 0.192708 0.193359 0.194010 0.194661 0.195312 0.195964 0.196615 0.197266 0.197917 0.198568 0.199219 0.199870 0.200521 0.201172 0.201823 0.202474 0.203125 0.203776 0.204427 0.205078 0.205729 0.206380 0.207031 0.207682 0.208333 0.208984 0.209635 0.210286 0.210938 0.211589 0.212240 0.212891 0.213542 0.214193 0.214844 0.215495 0.216146 0.216797 0.217448 0.218099 0.218750 0.219401 0.220052 0.220703 0.221354 0.222005 0.222656 0.223307 0.223958 0.224609 0.225260 0.225911 0.226562 0.227214 0.227865 0.228516 0.229167 0.229818 0.230469 0.231120 0.231771 0.232422 0.233073 0.233724 0.234375 0.235026 0.235677
       0.33268        0.33268        0.33268        0.33268        0.33268        0.33268        0.33268        0.33268        0.33268        0.33268        0.33268        0.33268        0.33268        0.33268        0.33268        0.33268        0.33268        0.33268        0.33268        0.33268        0.33268        0.33268        0.33268        0.33268        0.33268        0.33268        0.33268        0.33268        0.33268        0.33268        0.33268        0.33268        0.33268        0.33268        0.33268        0.33268        0.33268        0.33268        0.33268        0.33268        0.33268        0.33268        0.33268        0.33268        0.33268        0.33268        0.33268        0.33268        0.33268        0.33268        0.33268        0.50255        0.71926        0.42858        0.19023       -0.08041       -0.26307       -0.06978       -0.13404       -0.05404       -0.00283       -0.14772       -0.09293       -0.05150       -0.00357       -0.15211       -0.22121       -0.34682       -0.46334       -0.55947       -0.51870       -0.44877       -0.37247       -0.54842       -0.45047       -0.62161       -0.50320       -0.47540       -0.39026       -0.38497       -0.34068       -0.25119       -0.16128       -0.13626        0.03248       -0.01232        0.11793        0.16802        0.30400        0.40937        0.46441        0.49745        0.54070        0.55024        0.69243        0.64545        0.67687        0.59166        0.55683        0.65519        0.52844        0.42694        0.38327        0.32068        0.22743        0.26309        0.25093        0.10757        0.08334       -0.00002       -0.00728        0.03507       -0.00404        0.07432        0.09816        0.23088        0.28298        0.30188        0.37981        0.56070        0.53688        0.57770        0.67007        0.70023        0.63022        0.63374        0.63174        0.55372        0.57501        0.39656        0.34435        0.26601        0.18475        0.07124        0.14497        0.11860        0.09042        0.10640        0.20951        0.21359        0.31675        0.35863        0.41302        0.49190        0.58388        0.54179        0.55359        0.60811        0.53931        0.46159        0.47872        0.32383        0.25095        0.25749        0.24249        0.14280        0.14378        0.15104        0.21870        0.24700        0.32880        0.36385        0.39042        0.46789        0.44695        0.47808        0.45490        0.46729        0.44463        0.40642        0.38243        0.35257        0.30991        0.28535        0.20430        0.19735        0.22058        0.26947        0.26818        0.35003        0.37516        0.35750        0.41057        0.45529        0.44768        0.42422        0.43845        0.37021        0.33422        0.28301        0.26395        0.28955        0.26938        0.29430        0.30070        0.34870        0.34228        0.39781        0.40357        0.42583        0.41050        0.42947        0.40300        0.36533        0.28271        0.29161        0.30725        0.27301        0.25598        0.32886        0.36946        0.34175        0.35419        0.35878        0.35419        0.40809        0.40049        0.35903        0.33838        0.30965        0.30901        0.31549        0.31625        0.30023        0.28708        0.33544        0.35825        0.37724        0.33268        0.32895        0.33382        0.34504        0.30630        0.28307        0.30737        0.31555        0.33604        0.32153        0.33209        0.35777        0.32946        0.31261        0.32809        0.30339        0.26458        0.25129        0.26548        0.30703        0.32234        0.35086        0.30170        0.31480        0.33680        0.29264        0.31530        0.28618        0.28159        0.29163        0.29875        0.30900        0.34268        0.32410        0.32918        0.33462        0.31084        0.33268        0.31819        0.31920        0.30852        0.28273        0.29234        0.31261        0.29095        0.32628        0.33775        0.33485        0.31899        0.33902        0.31671        0.27689        0.25387        0.27030        0.33098        0.35844        0.34577        0.31606        0.29421        0.29799        0.31391        0.24708        0.29871        0.30493        0.32864        0.29775        0.31731        0.28686        0.33626        0.34190        0.34431        0.32437        0.29298        0.31517        0.39671        0.32963        0.31200        0.30768        0.29005        0.28504        0.29722        0.26459        0.31004        0.23843        0.27701        0.29699        0.31598        0.29503        0.27467        0.29922        0.23469        0.22538        0.26145        0.30378        0.30462        0.27817        0.28599        0.33211        0.25668        0.21404        0.30962        0.27365        0.25507        0.28313        0.39648        0.29538        0.28508        0.24700        0.25413        0.26639        0.23808        0.23401        0.16965        0.25457        0.23274        0.25007        0.31700        0.27579        0.34745        0.28109        0.24519        0.23039        0.21072        0.23556        0.29718        0.23109        0.12976        0.16031        0.24308        0.24702        0.33224        0.30113        0.02911       -0.42907       -0.90202
2.695161 2.666703 2.638398 2.610245 2.582245 2.554397 2.526703 2.499160 2.471771 2.444534 2.417450 2.390518 2.363739 2.337113 2.310639 2.284318 2.258149 2.232134 2.206270 2.180560 2.155002 2.129597 2.104344 2.079244 2.054297 2.029502 2.004860 1.980371 1.956034 1.931850 1.907819 1.883940 1.860214 1.836640 1.813219 1.789951 1.766835 1.743872 1.721062 1.698404 1.675899 1.653547 1.631347 1.609300 1.587406 1.565664 1.544075 1.522638 1.501354 1.480223 1.459244 1.529315 1.831007 1.515167 1.196498 0.942772 0.545413 0.912473 0.634514 0.875846 0.928202 0.591738 0.711078 0.782850 0.819761 0.631665 0.539005 0.349047 0.104595 0.080964 0.044576 0.084373 0.302741 -0.033874 0.082782 -0.133185 -0.010318 -0.017846 0.085002 0.063673 0.101848 0.177729 0.283990 0.252871 0.484479 0.398553 0.548833 0.527668 0.768643 0.788333 0.881659 0.921703 0.941082 0.944964 1.113619 0.942238 1.140879 0.948635 0.852615 1.017582 0.849507 0.760052 0.616504 0.596245 0.455731 0.417887 0.510561 0.266716 0.199680 0.159603 0.012219 0.206721 -0.003483 0.121397 0.180570 0.259063 0.331683 0.348056 0.424586 0.537943 0.664849 0.540256 0.740074 0.862067 0.640116 0.695288 0.665247 0.593705 0.538682 0.463400 0.297725 0.214685 0.118005 -0.042214 -0.019550 0.058878 -0.097755 -0.057729 0.048773 0.055562 0.113391 0.220440 0.239382 0.307793 0.433559 0.443390 0.439354 0.480798 0.448048 0.329512 0.332179 0.241093 0.053653 0.062953 0.016789 -0.043024 -0.098356 -0.098862 -0.015114 -0.051013 0.072249 0.121946 0.119642 0.262462 0.230958 0.236256 0.293239 0.247233 0.238882 0.213689 0.170769 0.110836 0.101841 0.025702 0.006350 -0.116646 -0.051942 0.001126 0.002654 0.022325 0.097735 0.085023 0.130392 0.191778 0.259247 0.178500 0.180938 0.108067 0.135598 0.023106 -0.032112 0.022744 -0.023819 0.006037 -0.006946 0.035720 0.083303 0.052900 0.155655 0.098230 0.165192 0.063167 0.147080 0.091500 -0.008942 -0.062700 -0.014154 -0.036023 -0.071344 -0.067224 0.054438 0.058215 -0.007456 0.049315 0.059928 0.072821 0.142853 0.064390 0.059943 0.048578 -0.026443 0.021520 0.000264 0.010823 0.001632 -0.006587 0.039810 0.059778 0.068355 0.028621 0.043595 0.020204 0.056981 -0.010598 -0.018162 0.022548 0.008878 0.059760 0.038420 0.047208 0.056964 0.041501 0.018399 0.029850 -0.000689 -0.048004 -0.032664 -0.027377 0.024173 0.038056 0.096764 -0.005614 0.063143 0.049122 -0.010662 0.062321 0.009171 0.007829 0.035659 0.052548 0.035328 0.090993 0.050406 0.068848 0.082192 0.062464 0.063052 0.063683 0.082317 0.031041 -0.008466 0.044962 0.041486 0.043521 0.068182 0.085653 0.010455 0.056635 0.071636 0.003863 0.000076 -0.060809 -0.027338 0.107909 0.078367 0.043703 0.035516 -0.019486 0.048375 0.020729 -0.070805 0.050847 0.031264 0.061178 0.032003 0.008932 0.003053 0.075201 0.032487 0.013134 0.040223 -0.041171 0.063682 0.115068 0.002404 -0.010683 -0.006019 -0.003452 -0.035856 -0.020541 -0.055148 -0.008146 -0.091162 -0.018186 -0.034526 0.025800 -0.035626 -0.051836 0.029571 -0.080246 -0.055332 -0.079538 0.049161 0.010389 0.005367 -0.007205 0.069279 -0.028337 -0.071698 0.057320 -0.005306 0.008717 0.010308 0.202303 -0.022478 0.018670 0.007141 -0.003457 -0.003306 -0.038051 -0.015434 -0.162007 0.018651 -0.036552 -0.012437 0.043000 0.008097 0.116212 -0.008818 -0.013743 -0.040014 -0.031437 -0.068779 0.049384 0.275962 0.153607 0.205478 0.243240 0.330254 0.361978 0.364251 0.036507 -1.056433
0.072396 0.072910 0.074452 0.077022 0.080618 0.085241 0.090888 0.097559 0.105250 0.113959 0.123682 0.134415 0.146152 0.158886 0.172609 0.187312 0.202982 0.219606 0.237168 0.255649 0.275029 0.295283 0.316382 0.338297 0.360991 0.384425 0.408555 0.433332 0.458702 0.484605 0.510976 0.537744 0.564832 0.592155 0.619623 0.647139 0.674597 0.701887 0.728889 0.755478 0.781521 0.806878 0.831402 0.854940 0.877333 0.898415 0.918016 0.935961 0.952073 0.966169 0.978065 0.987579 0.994525 0.998721 0.999990 0.998155 0.993051 0.984517 0.972405 0.956577 0.936913 0.913305 0.885669 0.853939 0.818073 0.778056 0.733901 0.685652 0.633386 0.577212 0.517280 0.453776 0.386926 0.316998 0.244301 0.169187 0.092048 0.013322 0.066515 0.146948 0.227423 0.307353 0.386119 0.463075 0.537554 0.608871 0.676331 0.739235 0.796890 0.848612 0.893739 0.931640 0.961722 0.983442 0.996317 0.999933 0.993956 0.978140 0.952340 0.916517 0.870747 0.815229 0.750288 0.676383 0.594105 0.504181 0.407472 0.304967 0.197780 0.087140 0.025619 0.139073 0.251723 0.362012 0.468349 0.569130 0.662765 0.747701 0.822455 0.885636 0.935984 0.972388 0.993923 0.999872 0.989753 0.963340 0.920680 0.862111 0.788271 0.700099 0.598837 0.486019 0.363459 0.233228 0.097628 0.040847 0.179552 0.315740 0.446609 0.569369 0.681298 0.779810 0.862516 0.927291 0.972336 0.996234 0.998006 0.977151 0.933687 0.868169 0.781706 0.675956 0.553112 0.415868 0.267377 0.111180 0.048860 0.208655 0.363992 0.510643 0.644482 0.761607 0.858462 0.931955 0.979568 0.999458 0.990538 0.952546 0.886088 0.792652 0.674602 0.535140 0.378237 0.208536 0.031229 0.148095 0.323614 0.489471 0.639964 0.769750 0.874050 0.948839 0.991013 0.998545 0.970595 0.907591 0.811255 0.684597 0.531843 0.358322 0.170299 0.025232 0.220799 0.408730 0.581460 0.731836 0.853432 0.940836 0.989917 0.998048 0.964267 0.889380 0.775989 0.628438 0.452687 0.256091 0.047129 0.164956 0.370552 0.560116 0.724618 0.855990 0.947549 0.994358 0.993532 0.944440 0.848820 0.710761 0.536581 0.334572 0.114638 0.112164 0.334169 0.539697 0.717678 0.858263 0.953403 0.997337 0.986986 0.922207 0.805891 0.643897 0.444800 0.219487 0.019402 0.258168 0.482827 0.679927 0.837384 0.945239 0.996339 0.986856 0.916621 0.789243 0.611989 0.395436 0.152879 0.100441 0.348278 0.574416 0.763731 0.903253 0.983072 0.997112 0.943644 0.825525 0.650137 0.428981 0.176993 0.088415 0.348551 0.584731 0.779648 0.918665 0.990970 0.990472 0.916390 0.773443 0.571651 0.325693 0.053917 0.222997 0.483588 0.707278 0.876029 0.975837 0.997971 0.939808 0.805206 0.604345 0.353055 0.071634 0.216743 0.487894 0.718684 0.889008 0.983605 0.993510 0.916982 0.759836 0.535116 0.262098 0.035277 0.330460 0.596658 0.809268 0.948195 0.999844 0.958528 0.827195 0.617351 0.348169 0.044815 0.263826 0.547885 0.779405 0.935130 0.998932 0.963573 0.831640 0.615500 0.336275 0.021863 0.295772 0.583814 0.812021 0.955934 0.999600 0.937454 0.775136 0.529141 0.225266 0.103997 0.422877 0.696195 0.893275 0.991472 0.978885 0.855928 0.635556 0.342032 0.008400 0.327176 0.625718 0.852017 0.978822 0.990262 0.883960 0.671602 0.377821 0.037477 0.308391 0.617469 0.851359 0.980433 0.987706 0.871224 0.644613 0.335667 0.016920 0.368305 0.673166 0.891573 0.994321 0.966964 0.812029 0.549005 0.212065 0.154202 0.500663 0.780171 0.954071 0.997663
1.000000 1.000000 1.000000 1.000000 1.000000 1.000000 1.000000 1.000000 1.000000 1.000000 1.000000 1.000000 1.000000 1.000000 1.000000 1.000000 1.000000 1.000000 1.000000 1.000000 1.000000 1.000000 1.000000 1.000000 1.000000 1.000000 1.000000 1.000000 1.000000 1.000000 1.000000 1.000000 1.000000 1.000000 1.000000 1.000000 1.000000 1.000000 1.000000 1.000000 1.000000 1.000000 1.000000 1.000000 1.000000 1.000000 1.000000 1.000000 1.000000 1.000000 1.000000 1.000000 0.918990 0.918990 0.905259 0.905259 0.905259 0.905259 0.905259 0.905259 0.905259 0.905259 0.905259 0.905259 0.905259 0.905259 0.905259 0.905259 0.905259 0.905259 0.905259 0.905259 0.905259 0.905259 0.905259 0.905259 0.905259 0.905259 0.905259 0.905259 0.905259 0.905259 0.905259 0.905259 0.905259 0.905259 0.905259 0.905259 0.905259 0.905259 0.905259 0.905259 0.905259 0.905259 0.905259 0.901117 0.905999 0.907889 0.906359 0.909904 0.909968 0.909258 0.909591 0.909248 0.909577 0.910970 0.921471 0.932487 0.943728 0.944251 0.949399 0.953796 0.956218 0.957084 0.958649 0.968642 0.967305 0.966812 0.967490 0.968925 0.971042 0.969772 0.969339 0.972512 0.973163 0.971569 0.969326 0.968723 0.968128 0.968233 0.967865 0.967751 0.967621 0.968129 0.968328 0.968478 0.968622 0.968675 0.969691 0.970844 0.973224 0.974205 0.974061 0.972991 0.971120 0.975152 0.976062 0.975804 0.975751 0.975282 0.975541 0.961586 0.957162 0.957076 0.953961 0.952835 0.949738 0.948423 0.946845 0.947123 0.945861 0.945685 0.942496 0.928750 0.915035 0.904095 0.924672 0.909439 0.898318 0.873440 0.874216 0.869813 0.870318 0.862478 0.856317 0.851742 0.848964 0.850372 0.847434 0.851506 0.848489 0.834716 0.837945 0.834556 0.805793 0.789152 0.773242 0.774697 0.771838 0.772927 0.772550 0.767833 0.776240 0.769055 0.767291 0.758847 0.739356 0.706932 0.693561 0.704022 0.713706 0.712324 0.708665 0.693660 0.660912 0.673444 0.693979 0.689773 0.692245 0.683734 0.678238 0.683195 0.684038 0.679829 0.672864 0.671877 0.671489 0.679913 0.684306 0.679253 0.670030 0.655710 0.643876 0.630329 0.645867 0.650406 0.619086 0.613132 0.603265 0.596887 0.583620 0.549390 0.548903 0.526600 0.515164 0.517936 0.520350 0.516541 0.525368 0.526515 0.507367 0.529808 0.537777 0.564665 0.543855 0.541208 0.542491 0.551246 0.534570 0.512007 0.504120 0.505038 0.517593 0.551715 0.593318 0.582699 0.570842 0.557333 0.571522 0.548419 0.557452 0.577319 0.555107 0.480380 0.434549 0.431960 0.393433 0.386638 0.378191 0.372782 0.385257 0.373966 0.362661 0.349407 0.337606 0.280988 0.243807 0.225888 0.202080 0.206517 0.218284 0.201823 0.201040 0.234777 0.281440 0.282040 0.273401 0.258377 0.261734 0.232734 0.248290 0.275657 0.232116 0.226383 0.219036 0.193644 0.185556 0.150043 0.175008 0.094267 0.075188 0.076503 0.092061 0.102605 0.100378 0.106448 0.080423 0.100899 0.093820 0.069021 0.057170 0.073307 0.062172 0.026828 0.037054 0.047348 0.035570 0.023609 0.045120 0.052323 0.063274 0.054176 0.053796 0.107067 0.138474 0.125706 0.126424 0.110988 0.116249 0.092055 0.081241 0.072367 0.062133 0.011706 -0.015916 -0.015916 -0.011513 -0.011513 -0.011513 -0.011513 -0.011513 -0.011513 -0.011513 -0.011513 -0.011513 -0.015309 -0.015309 -0.015309 -0.015309 -0.015309 -0.015309 -0.015309 -0.015309 -0.015309 0.009698 0.009698 0.009698 0.009698 0.009698 0.009698 0.009698 0.009698 0.009698
0.000000 0.000000 0.000000 0.000000 0.000000 0.000000 0.000000 0.000000 0.000000 0.000000 0.000000 0.000000 0.000000 0.000000 0.000000 0.000000 0.000000 0.000000 0.000000 0.000000 0.000000 0.000000 0.000000 0.000000 0.000000 0.000000 0.000000 0.000000 0.000000 0.000000 0.000000 0.000000 0.000000 0.000000 0.000000 0.000000 0.000000 0.000000 0.000000 0.000000 0.000000 0.000000 0.000000 0.000000 0.000000 0.000000 0.000000 0.000000 0.000000 0.000000 0.000000 0.000000 0.181818 0.181818 0.199007 0.199007 0.199007 0.199007 0.199007 0.199007 0.199007 0.199007 0.199007 0.199007 0.199007 0.199007 0.199007 0.199007 0.199007 0.199007 0.199007 0.199007 0.199007 0.199007 0.199007 0.199007 0.199007 0.199007 0.199007 0.199007 0.199007 0.199007 0.199007 0.199007 0.199007 0.199007 0.199007 0.199007 0.199007 0.199007 0.199007 0.199007 0.199007 0.199007 0.199007 0.230940 0.230940 0.230940 0.230940 0.230940 0.230940 0.230940 0.230940 0.230940 0.230940 0.230940 0.230940 0.230940 0.230940 0.230940 0.230940 0.230940 0.230940 0.230940 0.230940 0.230940 0.230940 0.230940 0.230940 0.230940 0.230940 0.230940 0.230940 0.244339 0.244339 0.244339 0.244339 0.244339 0.244339 0.244339 0.244339 0.244339 0.244339 0.244339 0.244339 0.244339 0.244339 0.244339 0.244339 0.244339 0.244339 0.244339 0.244339 0.244339 0.244339 0.244339 0.251976 0.251976 0.251976 0.251976 0.251976 0.251976 0.251976 0.251976 0.251976 0.251976 0.251976 0.251976 0.251976 0.251976 0.251976 0.251976 0.251976 0.251976 0.251976 0.251976 0.264906 0.264906 0.264906 0.264906 0.264906 0.264906 0.264906 0.264906 0.264906 0.264906 0.264906 0.264906 0.264906 0.264906 0.264906 0.264906 0.264906 0.264906 0.264906 0.264906 0.264906 0.264906 0.264906 0.264906 0.264906 0.264906 0.264906 0.264906 0.264906 0.264906 0.264906 0.264906 0.264906 0.264906 0.264906 0.264906 0.264906 0.264906 0.264906 0.264906 0.264906 0.264906 0.264906 0.264906 0.264906 0.264906 0.264906 0.264906 0.264906 0.264906 0.264906 0.264906 0.264906 0.264906 0.264906 0.264906 0.264906 0.264906 0.264906 0.264906 0.264906 0.264906 0.264906 0.264906 0.264906 0.264906 0.264906 0.264906 0.264906 0.264906 0.264906 0.264906 0.264906 0.264906 0.264906 0.269680 0.269680 0.269680 0.269680 0.269680 0.269680 0.269680 0.269680 0.269680 0.269680 0.269680 0.269680 0.264906 0.264906 0.264906 0.264906 0.264906 0.264906 0.264906 0.264906 0.264906 0.264906 0.264906 0.264906 0.269680 0.269680 0.269680 0.269680 0.269680 0.269680 0.269680 0.269680 0.269680 0.269680 0.269680 0.264906 0.264906 0.264906 0.264906 0.264906 0.264906 0.264906 0.264906 0.264906 0.264906 0.264906 0.256074 0.256074 0.256074 0.256074 0.256074 0.256074 0.256074 0.256074 0.256074 0.256074 0.256074 0.264906 0.264906 0.264906 0.264906 0.264906 0.264906 0.264906 0.264906 0.264906 0.264906 0.269680 0.269680 0.269680 0.269680 0.269680 0.269680 0.269680 0.269680 0.269680 0.256074 0.256074 0.256074 0.256074 0.256074 0.256074 0.256074 0.256074 0.256074 0.256074 0.260378 0.260378 0.260378 0.260378 0.260378 0.260378 0.260378 0.260378 0.260378 0.256074 0.256074 0.256074 0.256074 0.256074 0.256074 0.256074 0.256074 0.256074 0.251976 0.251976 0.251976 0.251976 0.251976 0.251976 0.251976 0.251976 0.251976 0.264906 0.264906 0.264906 0.264906 0.264906 0.264906 0.264906 0.264906 0.264906
