# Output from CTFFind version 4.1.9, run on 2019-11-03 19:27:51
# Input file: stack1_bm3d_averaged_1_3.75_0_1250_half.mrc ; Number of micrographs: 1
# Pixel size: 3.000 Angstroms ; acceleration voltage: 300.0 keV ; spherical aberration: 0.00 mm ; amplitude contrast: 0.07
# Box size: 512 pixels ; min. res.: 30.0 Angstroms ; max. res.: 5.0 Angstroms ; min. def.: 5000.0 um; max. def. 50000.0 um; num. frames averaged: 1
# 6 lines per micrograph: #1 - spatial frequency (1/Angstroms); #2 - 1D rotational average of spectrum (assuming no astigmatism); #3 - 1D rotational average of spectrum; #4 - CTF fit; #5 - cross-correlation between spectrum and CTF fit; #6 - 2sigma of expected cross correlation of noise
0.000000 0.000651 0.001302 0.001953 0.002604 0.003255 0.003906 0.004557 0.005208 0.005859 0.006510 0.007161 0.007812 0.008464 0.009115 0.009766 0.010417 0.011068 0.011719 0.012370 0.013021 0.013672 0.014323 0.014974 0.015625 0.016276 0.016927 0.017578 0.018229 0.018880 0.019531 0.020182 0.020833 0.021484 0.022135 0.022786 0.023438 0.024089 0.024740 0.025391 0.026042 0.026693 0.027344 0.027995 0.028646 0.029297 0.029948 0.030599 0.031250 0.031901 0.032552 0.033203 0.033854 0.034505 0.035156 0.035807 0.036458 0.037109 0.037760 0.038411 0.039062 0.039714 0.040365 0.041016 0.041667 0.042318 0.042969 0.043620 0.044271 0.044922 0.045573 0.046224 0.046875 0.047526 0.048177 0.048828 0.049479 0.050130 0.050781 0.051432 0.052083 0.052734 0.053385 0.054036 0.054688 0.055339 0.055990 0.056641 0.057292 0.057943 0.058594 0.059245 0.059896 0.060547 0.061198 0.061849 0.062500 0.063151 0.063802 0.064453 0.065104 0.065755 0.066406 0.067057 0.067708 0.068359 0.069010 0.069661 0.070312 0.070964 0.071615 0.072266 0.072917 0.073568 0.074219 0.074870 0.075521 0.076172 0.076823 0.077474 0.078125 0.078776 0.079427 0.080078 0.080729 0.081380 0.082031 0.082682 0.083333 0.083984 0.084635 0.085286 0.085938 0.086589 0.087240 0.087891 0.088542 0.089193 0.089844 0.090495 0.091146 0.091797 0.092448 0.093099 0.093750 0.094401 0.095052 0.095703 0.096354 0.097005 0.097656 0.098307 0.098958 0.099609 0.100260 0.100911 0.101562 0.102214 0.102865 0.103516 0.104167 0.104818 0.105469 0.106120 0.106771 0.107422 0.108073 0.108724 0.109375 0.110026 0.110677 0.111328 0.111979 0.112630 0.113281 0.113932 0.114583 0.115234 0.115885 0.116536 0.117188 0.117839 0.118490 0.119141 0.119792 0.120443 0.121094 0.121745 0.122396 0.123047 0.123698 0.124349 0.125000 0.125651 0.126302 0.126953 0.127604 0.128255 0.128906 0.129557 0.130208 0.130859 0.131510 0.132161 0.132812 0.133464 0.134115 0.134766 0.135417 0.136068 0.136719 0.137370 0.138021 0.138672 0.139323 0.139974 0.140625 0.141276 0.141927 0.142578 0.143229 0.143880 0.144531 0.145182 0.145833 0.146484 0.147135 0.147786 0.148438 0.149089 0.149740 0.150391 0.151042 0.151693 0.152344 0.152995 0.153646 0.154297 0.154948 0.155599 0.156250 0.156901 0.157552 0.158203 0.158854 0.159505 0.160156 0.160807 0.161458 0.162109 0.162760 0.163411 0.164062 0.164714 0.165365 0.166016 0.166667 0.167318 0.167969 0.168620 0.169271 0.169922 0.170573 0.171224 0.171875 0.172526 0.173177 0.173828 0.174479 0.175130 0.175781 0.176432 0.177083 0.177734 0.178385 0.179036 0.179688 0.180339 0.180990 0.181641 0.182292 0.182943 0.183594 0.184245 0.184896 0.185547 0.186198 0.186849 0.187500 0.188151 0.188802 0.189453 0.190104 0.190755 0.191406 0.192057 0.192708 0.193359 0.194010 0.194661 0.195312 0.195964 0.196615 0.197266 0.197917 0.198568 0.199219 0.199870 0.200521 0.201172 0.201823 0.202474 0.203125 0.203776 0.204427 0.205078 0.205729 0.206380 0.207031 0.207682 0.208333 0.208984 0.209635 0.210286 0.210938 0.211589 0.212240 0.212891 0.213542 0.214193 0.214844 0.215495 0.216146 0.216797 0.217448 0.218099 0.218750 0.219401 0.220052 0.220703 0.221354 0.222005 0.222656 0.223307 0.223958 0.224609 0.225260 0.225911 0.226562 0.227214 0.227865 0.228516 0.229167 0.229818 0.230469 0.231120 0.231771 0.232422 0.233073 0.233724 0.234375 0.235026 0.235677
       0.34916        0.34916        0.34916        0.34916        0.34916        0.34916        0.34916        0.34916        0.34916        0.34916        0.34916        0.34916        0.34916        0.34916        0.34916        0.34916        0.34916        0.34916        0.34916        0.34916        0.34916        0.34916        0.34916        0.34916        0.34916        0.34916        0.34916        0.34916        0.34916        0.34916        0.34916        0.34916        0.34916        0.34916        0.34916        0.34916        0.34916        0.34916        0.34916        0.34916        0.34916        0.34916        0.34916        0.34916        0.34916        0.34916        0.34916        0.34916        0.34916        0.34916        0.34916        0.47518        0.68696        0.36970        0.19264       -0.03629       -0.24182       -0.05255       -0.13539       -0.11341        0.01161       -0.11018       -0.11401       -0.04637       -0.03231       -0.12918       -0.16192       -0.30398       -0.46926       -0.55511       -0.51621       -0.43282       -0.33124       -0.51279       -0.38781       -0.51395       -0.42402       -0.44806       -0.32253       -0.30214       -0.28453       -0.18379       -0.10824       -0.09157        0.05051        0.02312        0.18637        0.17178        0.31832        0.39762        0.51522        0.54128        0.56269        0.59465        0.73425        0.64420        0.63636        0.55421        0.53818        0.61759        0.50664        0.48393        0.41258        0.31740        0.28470        0.29565        0.25272        0.13170        0.13099        0.00628        0.06672        0.06674        0.03626        0.09063        0.12945        0.21932        0.29069        0.29452        0.36158        0.50239        0.52008        0.53964        0.65776        0.63366        0.61075        0.64131        0.62664        0.50271        0.50315        0.40480        0.35849        0.28122        0.21821        0.18256        0.16489        0.13112        0.19233        0.19999        0.24032        0.24984        0.32701        0.37747        0.39841        0.49463        0.54134        0.55817        0.52691        0.59841        0.51710        0.49130        0.50306        0.38299        0.31962        0.29006        0.28695        0.20905        0.23015        0.21126        0.22387        0.23849        0.32177        0.37428        0.41558        0.43945        0.44697        0.47153        0.44206        0.48566        0.42118        0.38207        0.34966        0.38847        0.35602        0.34025        0.25737        0.30549        0.26412        0.26793        0.28392        0.36553        0.37966        0.41631        0.43770        0.46117        0.43590        0.43291        0.46996        0.36792        0.35489        0.34472        0.29916        0.34277        0.28726        0.32172        0.33212        0.32504        0.36894        0.40928        0.38873        0.43141        0.38674        0.41291        0.38316        0.40847        0.31236        0.30718        0.28049        0.25018        0.31305        0.34450        0.36109        0.36319        0.38227        0.38874        0.36301        0.43619        0.39821        0.37371        0.36079        0.31756        0.28727        0.31197        0.31536        0.36494        0.33051        0.35196        0.34293        0.39634        0.38117        0.36990        0.38019        0.38261        0.35473        0.31925        0.34955        0.33795        0.34843        0.31695        0.36249        0.36728        0.33423        0.33847        0.36354        0.33158        0.29245        0.30331        0.30662        0.32025        0.31267        0.35360        0.32692        0.33005        0.33461        0.33034        0.31944        0.29859        0.31582        0.32137        0.30898        0.31340        0.31993        0.31349        0.34100        0.32374        0.38342        0.37893        0.33488        0.37215        0.31846        0.25789        0.28664        0.33190        0.33144        0.29844        0.34052        0.32160        0.31885        0.34705        0.36106        0.33715        0.31332        0.29020        0.33979        0.36416        0.37639        0.30741        0.31294        0.29045        0.25952        0.26233        0.32747        0.31250        0.31336        0.30265        0.29039        0.28935        0.34112        0.36735        0.35162        0.30154        0.32312        0.33404        0.34704        0.38818        0.32972        0.33237        0.32817        0.35171        0.32048        0.32250        0.33347        0.26285        0.28876        0.32679        0.30554        0.33099        0.30532        0.25264        0.23860        0.28772        0.29299        0.35510        0.31161        0.30348        0.27815        0.32362        0.33381        0.28312        0.27557        0.25119        0.28609        0.30725        0.34996        0.28949        0.32336        0.32525        0.29350        0.33535        0.26274        0.21271        0.20514        0.26489        0.24438        0.25538        0.21484        0.21131        0.34785        0.31742        0.24685        0.24008        0.19551        0.28376        0.37461        0.23305        0.10245        0.17696        0.16134        0.18143        0.24606        0.11334        0.08490       -0.50489       -1.11518
2.790617 2.760845 2.731235 2.701787 2.672500 2.643376 2.614414 2.585613 2.556975 2.528498 2.500184 2.472031 2.444040 2.416212 2.388545 2.361040 2.333697 2.306516 2.279497 2.252640 2.225945 2.199412 2.173041 2.146832 2.120785 2.094900 2.069176 2.043615 2.018215 1.992978 1.967903 1.942989 1.918237 1.893648 1.869220 1.844954 1.820851 1.796909 1.773129 1.749511 1.726055 1.702761 1.679629 1.656659 1.633851 1.611205 1.588720 1.566398 1.544238 1.522239 1.500403 1.523245 1.882915 1.709872 1.127645 1.064963 0.503372 0.931149 0.604071 0.780418 0.884273 0.667754 0.618848 0.777387 0.746586 0.604136 0.575595 0.363564 0.053117 0.011671 -0.008391 -0.026988 0.330243 -0.066966 0.052346 -0.058935 -0.004283 -0.030323 0.090977 0.099640 0.116803 0.195397 0.309875 0.283202 0.455857 0.385997 0.630500 0.523816 0.769361 0.762243 0.934320 1.025698 0.963663 1.011331 1.143374 1.117439 1.061318 0.892993 0.882094 0.977157 0.821517 0.822251 0.662149 0.556309 0.502161 0.478639 0.461158 0.244468 0.268266 0.109139 0.064305 0.171702 0.038619 0.084615 0.172568 0.214743 0.325930 0.336419 0.419430 0.469278 0.629315 0.489462 0.755681 0.748091 0.627316 0.726560 0.697268 0.551993 0.441573 0.433278 0.290777 0.241470 0.089623 0.077536 -0.000076 -0.006346 -0.034869 0.036440 0.078564 0.070465 0.098526 0.226192 0.246627 0.298715 0.418544 0.428326 0.361264 0.458684 0.409706 0.324480 0.326813 0.289092 0.078706 0.082369 0.022526 -0.026694 -0.041996 -0.073153 -0.053082 -0.057052 -0.007837 0.086698 0.167406 0.205786 0.177409 0.216701 0.268454 0.226754 0.222940 0.209312 0.099838 0.094084 0.149494 0.057228 0.012033 -0.012439 0.029413 -0.032639 -0.002230 0.032613 0.114999 0.112870 0.161931 0.193097 0.230415 0.129103 0.208978 0.171488 0.103549 0.056616 0.015964 0.057386 -0.003196 0.014750 0.005161 0.050845 0.026091 0.102393 0.145440 0.065232 0.161001 0.090545 0.105808 0.119946 0.089277 -0.042447 -0.003740 -0.059470 -0.070830 0.017818 0.052626 0.080242 0.032607 0.092569 0.125351 0.078223 0.164926 0.062492 0.087299 0.074053 -0.057292 -0.004829 0.001401 0.017255 0.068306 0.042558 0.030780 0.077828 0.087289 0.070640 0.090500 0.079838 0.073268 0.042225 0.027605 0.045559 0.025993 0.059337 0.011776 0.078326 0.045346 -0.004992 0.035074 0.055938 -0.015667 -0.060936 0.000135 -0.035532 -0.021589 -0.022218 0.042068 0.005461 -0.009371 0.028533 -0.006613 0.000327 -0.014352 -0.013698 -0.014884 0.013164 -0.013984 -0.003323 -0.027895 0.037453 0.020749 0.096713 0.082587 0.051887 0.067327 -0.007647 -0.088672 0.003785 0.026261 0.043390 -0.009459 0.048690 0.017504 -0.004879 0.045081 0.054503 0.037906 -0.052419 -0.007337 0.051550 0.049704 0.065384 -0.031959 -0.010034 -0.028770 -0.062145 -0.053461 0.011342 0.037972 -0.014055 0.008155 -0.041629 -0.029254 0.021567 0.105440 -0.025150 0.011750 -0.042249 0.039106 0.031012 0.077775 -0.015083 -0.024027 0.025860 -0.005672 -0.041441 -0.038794 -0.004410 -0.117362 -0.056316 -0.017239 -0.027411 -0.013772 -0.097110 -0.087808 -0.093563 -0.043747 -0.124976 0.060708 -0.054697 -0.018224 -0.060968 0.006621 0.010739 -0.028749 -0.032566 -0.099805 0.026376 0.005645 0.086366 -0.033367 0.043103 0.066754 0.007387 0.133868 -0.019739 -0.088676 -0.037404 0.030112 0.008682 0.057341 -0.022672 -0.019751 0.173366 0.130237 0.083361 0.015721 0.022416 0.093437 0.291638 0.443480 0.111517 0.219799 0.255384 0.176166 0.324157 0.072692 0.111317 -1.409762
0.072396 0.072908 0.074442 0.076999 0.080578 0.085177 0.090797 0.097434 0.105087 0.113753 0.123428 0.134108 0.145787 0.158459 0.172115 0.186746 0.202340 0.218884 0.236362 0.254756 0.274045 0.294204 0.315207 0.337023 0.359616 0.382949 0.406976 0.431650 0.456919 0.482722 0.508996 0.535670 0.562668 0.589908 0.617299 0.644746 0.672146 0.699388 0.726355 0.752923 0.778961 0.804330 0.828886 0.852477 0.874945 0.896128 0.915856 0.933957 0.950253 0.964566 0.976713 0.986511 0.993778 0.998332 0.999996 0.998595 0.993963 0.985940 0.974376 0.959135 0.940092 0.917141 0.890192 0.859178 0.824054 0.784800 0.741425 0.693967 0.642495 0.587115 0.527967 0.465230 0.399121 0.329899 0.257861 0.183352 0.106752 0.028487 0.050978 0.131138 0.211450 0.291339 0.370195 0.447384 0.522246 0.594105 0.662274 0.726057 0.784766 0.837718 0.884252 0.923733 0.955563 0.979192 0.994125 0.999934 0.996268 0.982862 0.959547 0.926257 0.883040 0.830063 0.767616 0.696121 0.616132 0.528335 0.433550 0.332726 0.226938 0.117374 0.005333 0.107795 0.220541 0.331373 0.438720 0.540991 0.636600 0.723993 0.801675 0.868236 0.922383 0.962967 0.989012 0.999742 0.994603 0.973291 0.935769 0.882280 0.813362 0.729854 0.632891 0.523906 0.404610 0.276979 0.143226 0.005766 0.132820 0.269833 0.402506 0.528056 0.643753 0.746975 0.835276 0.906448 0.958582 0.990132 0.999963 0.987403 0.952277 0.894940 0.816289 0.717768 0.601359 0.469552 0.325312 0.172012 0.013378 0.146610 0.303808 0.454007 0.593060 0.716992 0.822120 0.905178 0.963424 0.994744 0.997744 0.971822 0.917218 0.835044 0.727286 0.596777 0.447148 0.282735 0.108474 0.070236 0.247697 0.418085 0.575646 0.714899 0.830826 0.919075 0.976135 0.999497 0.987780 0.940828 0.859761 0.746982 0.606138 0.442024 0.260449 0.068040 0.127975 0.320038 0.500556 0.662189 0.798174 0.902614 0.970760 0.999247 0.986286 0.931801 0.837487 0.706801 0.544874 0.358339 0.155080 0.056065 0.265694 0.464243 0.642426 0.791689 0.904625 0.975384 0.999994 0.976622 0.905734 0.790145 0.634962 0.447392 0.236449 0.012546 0.212998 0.428524 0.622630 0.784794 0.905966 0.979097 0.999593 0.965643 0.878404 0.742029 0.563525 0.352437 0.120383 0.119560 0.353579 0.567914 0.749675 0.887640 0.972990 0.999906 0.966021 0.872667 0.724896 0.531273 0.303436 0.055438 0.197093 0.437911 0.651215 0.822684 0.940492 0.996154 0.985197 0.907579 0.767813 0.574778 0.341223 0.082982 0.182064 0.435216 0.658251 0.834781 0.951477 0.999139 0.973479 0.875578 0.711942 0.494157 0.238130 0.036998 0.310272 0.560491 0.767866 0.915623 0.991410 0.988404 0.905999 0.750013 0.532372 0.270291 0.015035 0.300091 0.560982 0.775420 0.924687 0.995326 0.980431 0.880412 0.703133 0.463403 0.181826 0.116899 0.406123 0.659588 0.853862 0.970543 0.998090 0.933053 0.780593 0.554197 0.274579 0.032111 0.336701 0.609739 0.824364 0.959000 0.999606 0.941251 0.788809 0.556690 0.267591 0.049614 0.362722 0.639436 0.850726 0.973939 0.995313 0.911641 0.730842 0.471352 0.160370 0.168905 0.480766 0.740867 0.920056 0.997710 0.964244 0.822409 0.587261 0.284692 0.051308 0.382381 0.670169 0.880791 0.988898 0.980855 0.856596 0.629913 0.327088 0.016026 0.358160 0.657572 0.877161 0.989137 0.978684 0.846062 0.606879 0.290433 0.063756 0.410772 0.705998 0.910869 0.998026 0.955108 0.786667 0.513911 0.172191 0.193426 0.534054 0.803498 0.964602
1.000000 1.000000 1.000000 1.000000 1.000000 1.000000 1.000000 1.000000 1.000000 1.000000 1.000000 1.000000 1.000000 1.000000 1.000000 1.000000 1.000000 1.000000 1.000000 1.000000 1.000000 1.000000 1.000000 1.000000 1.000000 1.000000 1.000000 1.000000 1.000000 1.000000 1.000000 1.000000 1.000000 1.000000 1.000000 1.000000 1.000000 1.000000 1.000000 1.000000 1.000000 1.000000 1.000000 1.000000 1.000000 1.000000 1.000000 1.000000 1.000000 1.000000 1.000000 1.000000 0.906673 0.906673 0.906673 0.888131 0.888131 0.888131 0.888131 0.888131 0.888131 0.888131 0.888131 0.888131 0.888131 0.888131 0.888131 0.888131 0.888131 0.888131 0.888131 0.888131 0.888131 0.888131 0.888131 0.888131 0.888131 0.888131 0.888131 0.888131 0.888131 0.888131 0.888131 0.888131 0.888131 0.888131 0.888131 0.888131 0.888131 0.888131 0.888131 0.888131 0.888131 0.888131 0.888131 0.888131 0.895395 0.897626 0.899024 0.901690 0.903078 0.900227 0.899522 0.899127 0.899571 0.900707 0.911303 0.922693 0.934524 0.945963 0.951297 0.960019 0.961783 0.962027 0.968173 0.973432 0.971843 0.971153 0.971529 0.972991 0.974892 0.975050 0.976002 0.975855 0.975378 0.975852 0.975637 0.975022 0.974234 0.973490 0.973482 0.973006 0.973120 0.973979 0.974449 0.974860 0.975160 0.975318 0.973829 0.972208 0.967698 0.968023 0.967803 0.967149 0.963907 0.959996 0.959650 0.956727 0.956810 0.956508 0.956061 0.956491 0.953992 0.954230 0.941182 0.940120 0.939500 0.936772 0.933979 0.933278 0.931952 0.934291 0.932635 0.920993 0.911420 0.884918 0.877835 0.864870 0.860980 0.854576 0.857031 0.856220 0.857519 0.855015 0.849761 0.849242 0.845796 0.849846 0.848765 0.845964 0.844738 0.844143 0.834186 0.835223 0.830132 0.820532 0.817688 0.810691 0.813164 0.813054 0.813180 0.807904 0.813763 0.807671 0.804465 0.799962 0.794280 0.786321 0.772135 0.778012 0.784630 0.798755 0.797357 0.788951 0.766859 0.781446 0.783472 0.773317 0.777514 0.775687 0.740369 0.737363 0.735374 0.715321 0.724904 0.716286 0.720269 0.712799 0.708109 0.683669 0.663839 0.673194 0.680273 0.707430 0.704108 0.700835 0.695636 0.695068 0.658683 0.647144 0.650465 0.612824 0.622718 0.629507 0.602491 0.600823 0.584861 0.582520 0.590013 0.593693 0.589800 0.607709 0.599643 0.584880 0.573063 0.570590 0.566579 0.556476 0.540872 0.551849 0.534411 0.512827 0.520608 0.515896 0.519583 0.499165 0.478539 0.466087 0.428321 0.419271 0.395701 0.364250 0.348894 0.319579 0.264232 0.246706 0.266415 0.245262 0.231190 0.231218 0.197495 0.207660 0.181524 0.170974 0.177073 0.145199 0.129740 0.110308 0.089206 0.114901 0.134722 0.143159 0.124443 0.128740 0.162653 0.172141 0.159303 0.146650 0.138391 0.140189 0.117322 0.081047 0.052782 0.021698 0.012918 -0.040809 -0.033017 -0.035335 -0.032792 -0.056437 -0.063811 -0.060966 -0.049127 -0.060613 -0.076515 -0.094401 -0.089547 -0.098150 -0.078867 -0.067109 -0.062732 -0.067998 -0.046783 -0.022326 -0.018048 -0.030400 -0.043253 -0.082140 -0.072260 -0.053555 0.012444 0.034265 0.037916 0.105267 0.102846 0.094001 0.087514 0.095332 0.072927 0.114399 0.128203 0.129430 0.125747 0.040062 0.030129 0.030129 0.030129 0.025656 0.025656 0.025656 0.025656 0.025656 0.025656 0.025656 0.025656 0.025656 0.012132 0.012132 0.012132 0.012132 0.012132 0.012132 0.012132 0.012132 0.012132 0.012132 0.012132 0.012132 0.012132 0.012132 0.012132 0.012132 0.012132
0.000000 0.000000 0.000000 0.000000 0.000000 0.000000 0.000000 0.000000 0.000000 0.000000 0.000000 0.000000 0.000000 0.000000 0.000000 0.000000 0.000000 0.000000 0.000000 0.000000 0.000000 0.000000 0.000000 0.000000 0.000000 0.000000 0.000000 0.000000 0.000000 0.000000 0.000000 0.000000 0.000000 0.000000 0.000000 0.000000 0.000000 0.000000 0.000000 0.000000 0.000000 0.000000 0.000000 0.000000 0.000000 0.000000 0.000000 0.000000 0.000000 0.000000 0.000000 0.000000 0.180334 0.180334 0.180334 0.199007 0.199007 0.199007 0.199007 0.199007 0.199007 0.199007 0.199007 0.199007 0.199007 0.199007 0.199007 0.199007 0.199007 0.199007 0.199007 0.199007 0.199007 0.199007 0.199007 0.199007 0.199007 0.199007 0.199007 0.199007 0.199007 0.199007 0.199007 0.199007 0.199007 0.199007 0.199007 0.199007 0.199007 0.199007 0.199007 0.199007 0.199007 0.199007 0.199007 0.199007 0.230940 0.230940 0.230940 0.230940 0.230940 0.230940 0.230940 0.230940 0.230940 0.230940 0.230940 0.230940 0.230940 0.230940 0.230940 0.230940 0.230940 0.230940 0.230940 0.230940 0.230940 0.230940 0.230940 0.230940 0.230940 0.230940 0.230940 0.230940 0.248069 0.248069 0.248069 0.248069 0.248069 0.248069 0.248069 0.248069 0.248069 0.248069 0.248069 0.248069 0.248069 0.248069 0.248069 0.248069 0.248069 0.248069 0.248069 0.248069 0.248069 0.248069 0.251976 0.251976 0.251976 0.251976 0.251976 0.251976 0.251976 0.251976 0.251976 0.251976 0.251976 0.251976 0.251976 0.251976 0.251976 0.251976 0.251976 0.251976 0.251976 0.251976 0.256074 0.256074 0.256074 0.256074 0.256074 0.256074 0.256074 0.256074 0.256074 0.256074 0.256074 0.256074 0.256074 0.256074 0.256074 0.256074 0.256074 0.256074 0.264906 0.264906 0.264906 0.264906 0.264906 0.264906 0.264906 0.264906 0.264906 0.264906 0.264906 0.264906 0.264906 0.264906 0.264906 0.264906 0.264906 0.264906 0.264906 0.264906 0.264906 0.264906 0.264906 0.264906 0.264906 0.264906 0.264906 0.264906 0.264906 0.264906 0.264906 0.274721 0.274721 0.274721 0.274721 0.274721 0.274721 0.274721 0.274721 0.274721 0.274721 0.274721 0.274721 0.274721 0.264906 0.264906 0.264906 0.264906 0.264906 0.264906 0.264906 0.264906 0.264906 0.264906 0.264906 0.264906 0.264906 0.260378 0.260378 0.260378 0.260378 0.260378 0.260378 0.260378 0.260378 0.260378 0.260378 0.260378 0.260378 0.260378 0.264906 0.264906 0.264906 0.264906 0.264906 0.264906 0.264906 0.264906 0.264906 0.264906 0.264906 0.264906 0.269680 0.269680 0.269680 0.269680 0.269680 0.269680 0.269680 0.269680 0.269680 0.269680 0.269680 0.264906 0.264906 0.264906 0.264906 0.264906 0.264906 0.264906 0.264906 0.264906 0.264906 0.264906 0.269680 0.269680 0.269680 0.269680 0.269680 0.269680 0.269680 0.269680 0.269680 0.269680 0.264906 0.264906 0.264906 0.264906 0.264906 0.264906 0.264906 0.264906 0.264906 0.264906 0.260378 0.260378 0.260378 0.260378 0.260378 0.260378 0.260378 0.260378 0.260378 0.260378 0.256074 0.256074 0.256074 0.256074 0.256074 0.256074 0.256074 0.256074 0.256074 0.256074 0.260378 0.260378 0.260378 0.260378 0.260378 0.260378 0.260378 0.260378 0.260378 0.256074 0.256074 0.256074 0.256074 0.256074 0.256074 0.256074 0.256074 0.256074 0.251976 0.251976 0.251976 0.251976 0.251976 0.251976 0.251976 0.251976 0.251976 0.251976 0.251976 0.251976 0.251976 0.251976 0.251976 0.251976 0.251976
