# Output from CTFFind version 4.1.9, run on 2019-11-03 20:08:21
# Input file: stack16_bm3d_averaged_1_10_0_1500_half.mrc ; Number of micrographs: 1
# Pixel size: 3.000 Angstroms ; acceleration voltage: 300.0 keV ; spherical aberration: 0.00 mm ; amplitude contrast: 0.07
# Box size: 512 pixels ; min. res.: 30.0 Angstroms ; max. res.: 5.0 Angstroms ; min. def.: 5000.0 um; max. def. 50000.0 um; num. frames averaged: 1
# 6 lines per micrograph: #1 - spatial frequency (1/Angstroms); #2 - 1D rotational average of spectrum (assuming no astigmatism); #3 - 1D rotational average of spectrum; #4 - CTF fit; #5 - cross-correlation between spectrum and CTF fit; #6 - 2sigma of expected cross correlation of noise
0.000000 0.000651 0.001302 0.001953 0.002604 0.003255 0.003906 0.004557 0.005208 0.005859 0.006510 0.007161 0.007812 0.008464 0.009115 0.009766 0.010417 0.011068 0.011719 0.012370 0.013021 0.013672 0.014323 0.014974 0.015625 0.016276 0.016927 0.017578 0.018229 0.018880 0.019531 0.020182 0.020833 0.021484 0.022135 0.022786 0.023438 0.024089 0.024740 0.025391 0.026042 0.026693 0.027344 0.027995 0.028646 0.029297 0.029948 0.030599 0.031250 0.031901 0.032552 0.033203 0.033854 0.034505 0.035156 0.035807 0.036458 0.037109 0.037760 0.038411 0.039062 0.039714 0.040365 0.041016 0.041667 0.042318 0.042969 0.043620 0.044271 0.044922 0.045573 0.046224 0.046875 0.047526 0.048177 0.048828 0.049479 0.050130 0.050781 0.051432 0.052083 0.052734 0.053385 0.054036 0.054688 0.055339 0.055990 0.056641 0.057292 0.057943 0.058594 0.059245 0.059896 0.060547 0.061198 0.061849 0.062500 0.063151 0.063802 0.064453 0.065104 0.065755 0.066406 0.067057 0.067708 0.068359 0.069010 0.069661 0.070312 0.070964 0.071615 0.072266 0.072917 0.073568 0.074219 0.074870 0.075521 0.076172 0.076823 0.077474 0.078125 0.078776 0.079427 0.080078 0.080729 0.081380 0.082031 0.082682 0.083333 0.083984 0.084635 0.085286 0.085938 0.086589 0.087240 0.087891 0.088542 0.089193 0.089844 0.090495 0.091146 0.091797 0.092448 0.093099 0.093750 0.094401 0.095052 0.095703 0.096354 0.097005 0.097656 0.098307 0.098958 0.099609 0.100260 0.100911 0.101562 0.102214 0.102865 0.103516 0.104167 0.104818 0.105469 0.106120 0.106771 0.107422 0.108073 0.108724 0.109375 0.110026 0.110677 0.111328 0.111979 0.112630 0.113281 0.113932 0.114583 0.115234 0.115885 0.116536 0.117188 0.117839 0.118490 0.119141 0.119792 0.120443 0.121094 0.121745 0.122396 0.123047 0.123698 0.124349 0.125000 0.125651 0.126302 0.126953 0.127604 0.128255 0.128906 0.129557 0.130208 0.130859 0.131510 0.132161 0.132812 0.133464 0.134115 0.134766 0.135417 0.136068 0.136719 0.137370 0.138021 0.138672 0.139323 0.139974 0.140625 0.141276 0.141927 0.142578 0.143229 0.143880 0.144531 0.145182 0.145833 0.146484 0.147135 0.147786 0.148438 0.149089 0.149740 0.150391 0.151042 0.151693 0.152344 0.152995 0.153646 0.154297 0.154948 0.155599 0.156250 0.156901 0.157552 0.158203 0.158854 0.159505 0.160156 0.160807 0.161458 0.162109 0.162760 0.163411 0.164062 0.164714 0.165365 0.166016 0.166667 0.167318 0.167969 0.168620 0.169271 0.169922 0.170573 0.171224 0.171875 0.172526 0.173177 0.173828 0.174479 0.175130 0.175781 0.176432 0.177083 0.177734 0.178385 0.179036 0.179688 0.180339 0.180990 0.181641 0.182292 0.182943 0.183594 0.184245 0.184896 0.185547 0.186198 0.186849 0.187500 0.188151 0.188802 0.189453 0.190104 0.190755 0.191406 0.192057 0.192708 0.193359 0.194010 0.194661 0.195312 0.195964 0.196615 0.197266 0.197917 0.198568 0.199219 0.199870 0.200521 0.201172 0.201823 0.202474 0.203125 0.203776 0.204427 0.205078 0.205729 0.206380 0.207031 0.207682 0.208333 0.208984 0.209635 0.210286 0.210938 0.211589 0.212240 0.212891 0.213542 0.214193 0.214844 0.215495 0.216146 0.216797 0.217448 0.218099 0.218750 0.219401 0.220052 0.220703 0.221354 0.222005 0.222656 0.223307 0.223958 0.224609 0.225260 0.225911 0.226562 0.227214 0.227865 0.228516 0.229167 0.229818 0.230469 0.231120 0.231771 0.232422 0.233073 0.233724 0.234375 0.235026 0.235677
       0.37332        0.37332        0.37332        0.37332        0.37332        0.37332        0.37332        0.37332        0.37332        0.37332        0.37332        0.37332        0.37332        0.37332        0.37332        0.37332        0.37332        0.37332        0.37332        0.37332        0.37332        0.37332        0.37332        0.37332        0.37332        0.37332        0.37332        0.37332        0.37332        0.37332        0.37332        0.37332        0.37332        0.37332        0.37332        0.37332        0.37332        0.37332        0.37332        0.37332        0.37332        0.37332        0.37332        0.37332        0.37332        0.37332        0.37332        0.37332        0.37332        0.37332        0.37332        0.44772        0.56358        0.34993       -0.21564       -0.43378       -0.52055       -0.62879       -0.69258       -0.69298       -0.78132       -0.86325       -0.64967       -0.79760       -0.78814       -0.91960       -0.96401       -0.84564       -0.80676       -0.77089       -0.67207       -0.60483       -0.51333       -0.42335       -0.36174       -0.13621       -0.03609        0.07688        0.28994        0.27719        0.33987        0.38315        0.42127        0.55466        0.55553        0.58851        0.54427        0.49098        0.51911        0.55642        0.48195        0.35078        0.24533        0.20862        0.13226        0.05337        0.03463        0.02386        0.09337        0.06143        0.11116        0.08388        0.20280        0.22213        0.42546        0.47516        0.55369        0.66021        0.68430        0.71590        0.65544        0.61901        0.57270        0.46520        0.40572        0.31059        0.24430        0.24506        0.13374        0.15166        0.16402        0.12017        0.12077        0.32124        0.44046        0.54683        0.54447        0.56666        0.61005        0.59592        0.57372        0.59761        0.58109        0.49053        0.33632        0.28970        0.29147        0.19803        0.12155        0.20222        0.25756        0.31662        0.37215        0.44754        0.49397        0.54746        0.61306        0.56286        0.51163        0.53379        0.37782        0.32108        0.29065        0.20579        0.24901        0.27711        0.31198        0.30825        0.36280        0.45207        0.48425        0.51049        0.46855        0.45970        0.50748        0.42000        0.34336        0.30862        0.29068        0.26017        0.24295        0.25986        0.36389        0.47328        0.45756        0.49483        0.56019        0.48047        0.43749        0.37831        0.35276        0.30649        0.30688        0.29190        0.31553        0.39590        0.40362        0.46763        0.48479        0.46349        0.49007        0.40648        0.39695        0.36608        0.30065        0.28021        0.28490        0.37312        0.39665        0.37887        0.40183        0.44521        0.46414        0.41388        0.35622        0.34746        0.37797        0.34550        0.31384        0.32504        0.38640        0.40134        0.42109        0.40832        0.42091        0.44269        0.42812        0.35032        0.31399        0.32476        0.35921        0.41971        0.39290        0.42194        0.37522        0.38872        0.40871        0.36615        0.36921        0.34100        0.33074        0.35983        0.37397        0.35604        0.39567        0.40569        0.35165        0.37001        0.35085        0.33789        0.33290        0.34503        0.35885        0.34725        0.38859        0.40057        0.38861        0.32864        0.32720        0.30989        0.35323        0.34302        0.33787        0.39070        0.37680        0.35865        0.34012        0.33051        0.31838        0.30028        0.34500        0.36199        0.38405        0.38786        0.37736        0.35052        0.36696        0.39152        0.36460        0.36868        0.36659        0.34209        0.35197        0.31573        0.33688        0.33306        0.33833        0.30451        0.34913        0.37586        0.34383        0.38351        0.34324        0.36215        0.37305        0.35680        0.33936        0.36248        0.39930        0.36725        0.39746        0.35684        0.33585        0.35418        0.33886        0.35611        0.35416        0.39263        0.33703        0.34203        0.32309        0.32617        0.29599        0.31384        0.38904        0.34259        0.33037        0.30624        0.28819        0.29608        0.37705        0.32365        0.30983        0.35326        0.33368        0.29926        0.26733        0.30975        0.30336        0.33244        0.33592        0.36910        0.36164        0.34989        0.34116        0.28628        0.31997        0.32543        0.32175        0.33273        0.36463        0.32554        0.24670        0.32092        0.33830        0.35864        0.31142        0.31672        0.26623        0.31739        0.28753        0.27054        0.29939        0.25855        0.32055        0.32226        0.31283        0.29345        0.36042        0.30506        0.25934        0.26413        0.33105        0.25020        0.15406        0.11740        0.19168        0.36300        0.34398        0.21552        0.19909       -0.30397       -0.57711
3.350346 3.307242 3.264421 3.221881 3.179624 3.137648 3.095955 3.054544 3.013414 2.972567 2.932002 2.891719 2.851718 2.812000 2.772563 2.733408 2.694536 2.655946 2.617637 2.579611 2.541867 2.504405 2.467225 2.430327 2.393711 2.357377 2.321325 2.285556 2.250068 2.214863 2.179940 2.145298 2.110939 2.076862 2.043067 2.009554 1.976323 1.943375 1.910708 1.878323 1.846221 1.814400 1.782862 1.751606 1.720632 1.689940 1.659530 1.629402 1.599556 1.569992 1.540711 1.579103 1.632266 1.571182 0.847845 0.616070 0.476970 0.403428 0.304901 0.236871 0.208707 -0.043322 0.226106 0.094516 -0.017308 -0.087806 -0.230348 -0.134161 -0.038155 -0.093788 -0.060609 0.047511 0.051912 0.245327 0.114775 0.366370 0.469036 0.516554 0.788624 0.680806 0.710777 0.819277 0.795501 0.860940 0.921061 0.857344 0.881976 0.728471 0.777201 0.846542 0.701324 0.603327 0.429287 0.431420 0.312050 0.200207 0.191710 0.107660 0.207282 0.119826 0.203842 0.103623 0.213073 0.222186 0.421091 0.387693 0.550139 0.585351 0.592073 0.702423 0.591802 0.546043 0.450240 0.406358 0.267885 0.250137 0.076810 0.135212 -0.040630 0.027958 -0.030088 -0.054841 -0.079436 0.007870 0.236984 0.277453 0.330980 0.264774 0.353477 0.357134 0.378832 0.358527 0.339931 0.304753 0.102106 0.049995 0.053515 -0.037269 -0.153335 -0.081056 -0.066694 0.022832 0.058413 0.126980 0.185998 0.204837 0.297596 0.388836 0.251044 0.352538 0.206790 0.147184 0.055795 0.023328 -0.001107 0.055629 0.064943 0.080761 0.115004 0.161079 0.228173 0.288742 0.253248 0.197067 0.245419 0.216986 0.102756 0.035893 0.058779 0.014742 0.003308 -0.047014 0.027775 0.159972 0.201562 0.175312 0.281412 0.184905 0.196873 0.072540 0.063382 0.030645 -0.002415 -0.014992 -0.009107 0.049114 0.099452 0.111389 0.160489 0.138164 0.226723 0.147726 0.078274 0.097964 0.031489 -0.040718 -0.010123 0.036271 0.080860 0.066257 0.059558 0.145984 0.105805 0.153811 0.042921 0.039872 0.048702 0.045967 0.027195 -0.009986 0.041653 0.061465 0.092673 0.098768 0.080197 0.116762 0.114998 0.077531 0.006440 -0.016303 0.004803 0.069293 0.090518 0.085995 0.081505 0.053356 0.089643 0.062755 0.038690 0.057480 -0.004164 0.006569 0.071058 0.039884 0.041274 0.087665 0.088021 0.044376 0.067882 0.025272 0.017430 0.021987 0.055868 0.031846 0.033125 0.078084 0.083887 0.049742 -0.002032 0.001839 -0.019584 0.051837 0.005333 0.014660 0.074821 0.041939 0.009038 0.020999 -0.016048 -0.002405 -0.029778 0.015094 0.038365 0.063938 0.037771 0.038996 0.016256 0.011852 0.063716 0.018064 0.027812 0.019210 -0.005631 0.018819 -0.038133 -0.035373 -0.037145 -0.011078 -0.070688 0.017616 0.021213 -0.010367 -0.008891 0.002225 -0.006152 0.025269 -0.001366 -0.012507 0.019654 0.036940 0.012565 0.052079 -0.006358 0.007742 0.017012 -0.007948 0.019006 0.000716 0.095493 0.020068 0.010254 0.004868 -0.005282 -0.022216 0.013804 0.069351 0.023111 0.028982 -0.028092 -0.020743 -0.018914 0.078634 0.006082 -0.025052 0.070780 0.045558 -0.009814 -0.007732 -0.002948 0.027227 0.043205 0.041067 0.117035 0.040641 0.067867 0.046417 -0.005769 0.040146 0.025809 0.000561 0.040156 0.066038 0.010353 -0.056052 0.021944 0.045079 0.056980 -0.011453 0.008002 -0.036411 -0.006352 -0.010786 -0.043638 0.013771 -0.067875 0.053126 0.013806 0.049358 -0.076342 0.080216 0.047996 0.007684 -0.023514 0.110157 0.018343 -0.055000 -0.155948 0.166456 0.337603 0.335834 0.135199 0.199060 -0.563145
0.072396 0.073047 0.074998 0.078250 0.082801 0.088650 0.095794 0.104232 0.113957 0.124967 0.137253 0.150808 0.165621 0.181680 0.198969 0.217471 0.237161 0.258016 0.280004 0.303089 0.327230 0.352381 0.378488 0.405490 0.433319 0.461898 0.491142 0.520956 0.551237 0.581870 0.612730 0.643682 0.674578 0.705261 0.735561 0.765296 0.794275 0.822293 0.849137 0.874583 0.898397 0.920337 0.940153 0.957591 0.972392 0.984293 0.993033 0.998350 0.999990 0.997703 0.991253 0.980415 0.964981 0.944767 0.919611 0.889381 0.853980 0.813345 0.767458 0.716346 0.660083 0.598802 0.532688 0.461991 0.387022 0.308157 0.225841 0.140587 0.052971 0.036358 0.126691 0.217258 0.307229 0.395728 0.481833 0.564589 0.643015 0.716120 0.782911 0.842409 0.893667 0.935781 0.967913 0.989305 0.999299 0.997352 0.983060 0.956169 0.916595 0.864435 0.799984 0.723739 0.636412 0.538930 0.432434 0.318276 0.198007 0.073369 0.053734 0.181251 0.307022 0.428805 0.544324 0.651303 0.747521 0.830858 0.899349 0.951235 0.985014 0.999494 0.993840 0.967612 0.920803 0.853867 0.767738 0.663833 0.544049 0.410748 0.266721 0.115142 0.040485 0.196410 0.348714 0.493411 0.626551 0.744334 0.843228 0.920080 0.972239 0.997652 0.994964 0.963600 0.903816 0.816748 0.704412 0.569691 0.416292 0.248655 0.071852 0.108553 0.286673 0.456487 0.612041 0.747664 0.858194 0.939185 0.987110 0.999538 0.975281 0.914497 0.818751 0.691018 0.535632 0.358173 0.165299 0.035486 0.236102 0.428214 0.603580 0.754411 0.873737 0.955754 0.996140 0.992310 0.943622 0.851483 0.719375 0.552777 0.358985 0.146829 0.073692 0.291875 0.496809 0.677939 0.825618 0.931655 0.989806 0.996187 0.949579 0.851597 0.706724 0.522162 0.307541 0.074456 0.164115 0.394525 0.603233 0.777605 0.906725 0.982111 0.998331 0.953457 0.849310 0.691490 0.489152 0.254548 0.002340 0.251282 0.489621 0.696573 0.857746 0.961507 0.999880 0.969239 0.870708 0.710254 0.498417 0.249711 0.018313 0.286253 0.534249 0.743459 0.897533 0.983945 0.995095 0.929067 0.789963 0.587780 0.337793 0.059490 0.224885 0.492082 0.719750 0.888335 0.982840 0.994244 0.920466 0.766766 0.545513 0.275307 0.020486 0.315695 0.583632 0.799523 0.942861 0.999430 0.962841 0.835371 0.627995 0.359597 0.055369 0.255486 0.542493 0.776918 0.934701 0.999014 0.962193 0.826785 0.605578 0.320548 0.000823 0.320229 0.608418 0.832424 0.967252 0.997160 0.917638 0.736227 0.471998 0.153713 0.183167 0.500385 0.761217 0.934778 0.999812 0.947446 0.782576 0.523649 0.200786 0.147572 0.479154 0.752976 0.934467 0.999964 0.939969 0.760732 0.483837 0.143823 0.215976 0.548869 0.810868 0.966586 0.994174 0.888590 0.662701 0.345970 0.019178 0.382902 0.694693 0.910445 0.998811 0.945975 0.758044 0.460652 0.095694 0.284374 0.623997 0.872673 0.992562 0.964469 0.791165 0.497482 0.127023 0.264089 0.615637 0.872566 0.993754 0.958807 0.771770 0.461039 0.075331 0.323723 0.671350 0.910175 0.999836 0.924081 0.694007 0.346788 0.060019 0.457829 0.778556 0.966305 0.987372 0.836566 0.538760 0.145118 0.275392 0.647987 0.905339 0.999949 0.913179 0.659277 0.283453 0.145847 0.549230 0.850962 0.993359 0.948071 0.722099 0.357168 0.077582 0.498499 0.823396 0.987760 0.957814 0.737849 0.370130 0.072813 0.502258 0.830971 0.991035 0.948211 0.709648 0.323234 0.131631 0.560082 0.871500 0.998873 0.913534 0.632053 0.213556 0.252320 0.664387
1.000000 1.000000 1.000000 1.000000 1.000000 1.000000 1.000000 1.000000 1.000000 1.000000 1.000000 1.000000 1.000000 1.000000 1.000000 1.000000 1.000000 1.000000 1.000000 1.000000 1.000000 1.000000 1.000000 1.000000 1.000000 1.000000 1.000000 1.000000 1.000000 1.000000 1.000000 1.000000 1.000000 1.000000 1.000000 1.000000 1.000000 1.000000 1.000000 1.000000 1.000000 1.000000 1.000000 1.000000 1.000000 1.000000 1.000000 1.000000 1.000000 1.000000 1.000000 1.000000 0.923644 0.923644 0.923644 0.923644 0.923644 0.923644 0.923644 0.923644 0.923644 0.923644 0.923644 0.923644 0.923644 0.923644 0.923644 0.923644 0.923644 0.923644 0.923644 0.923644 0.923644 0.923644 0.923644 0.923644 0.923644 0.923644 0.923644 0.923644 0.923644 0.923644 0.923644 0.923644 0.923644 0.913420 0.911503 0.912668 0.911234 0.909756 0.909169 0.908780 0.909822 0.911429 0.913499 0.935118 0.936949 0.938224 0.939550 0.941124 0.943361 0.941176 0.945130 0.951140 0.950014 0.951331 0.951581 0.952150 0.951516 0.950792 0.953055 0.952254 0.950585 0.948594 0.946923 0.946370 0.946145 0.949785 0.950269 0.950439 0.951026 0.950975 0.951693 0.949588 0.947956 0.950248 0.931729 0.929963 0.934824 0.932208 0.933112 0.933081 0.933743 0.934653 0.935069 0.935350 0.931940 0.931378 0.930227 0.924494 0.917021 0.917335 0.919425 0.921617 0.918996 0.917919 0.919160 0.919971 0.917620 0.920567 0.913287 0.910772 0.886338 0.873519 0.867875 0.868633 0.873712 0.877703 0.875484 0.871623 0.865162 0.862782 0.861090 0.862624 0.852600 0.854268 0.853581 0.847247 0.850016 0.852792 0.858230 0.857657 0.853978 0.848843 0.842084 0.827647 0.827684 0.827926 0.831667 0.812144 0.795803 0.828729 0.823067 0.819557 0.826929 0.828714 0.826548 0.824967 0.825334 0.823315 0.815362 0.806329 0.810034 0.819176 0.823639 0.815975 0.811400 0.813204 0.813032 0.808882 0.813808 0.816329 0.813065 0.803889 0.819278 0.800806 0.815790 0.816273 0.793971 0.779500 0.766626 0.773314 0.780166 0.768186 0.768983 0.781071 0.780912 0.777328 0.767833 0.740889 0.748248 0.746296 0.738553 0.729850 0.736202 0.728352 0.727563 0.727575 0.732102 0.731640 0.709452 0.723520 0.730014 0.730528 0.741348 0.742112 0.734076 0.737347 0.742435 0.729420 0.724398 0.705704 0.708216 0.641598 0.635097 0.613958 0.609688 0.605300 0.549718 0.550817 0.534554 0.518883 0.517599 0.484770 0.526334 0.426998 0.420835 0.437357 0.377129 0.372069 0.392050 0.393048 0.408863 0.381025 0.379751 0.386957 0.363206 0.334872 0.311205 0.334836 0.343007 0.335352 0.337298 0.307377 0.300317 0.249798 0.267956 0.272301 0.298447 0.296299 0.281963 0.300330 0.353647 0.287947 0.274581 0.252461 0.278806 0.282177 0.267304 0.257936 0.284928 0.229161 0.247811 0.252408 0.253954 0.311041 0.336153 0.337351 0.333061 0.341283 0.370720 0.338015 0.344644 0.358379 0.350169 0.367416 0.370320 0.383363 0.386070 0.430931 0.454372 0.460695 0.471384 0.487250 0.487383 0.464929 0.471867 0.427652 0.453020 0.430329 0.439115 0.400250 0.385973 0.383865 0.348629 0.305559 0.306441 0.301928 0.256793 0.256614 0.245901 0.212390 0.211941 0.224364 0.234594 0.204217 0.210998 0.223326 0.223326 0.223326 0.223326 0.223326 0.223326 0.223326 0.223326 0.223326 0.223326 0.223326 0.223326 0.223326 0.223326 0.243509 0.243509 0.243509 0.243509 0.243509 0.243509 0.243509 0.243509 0.243509 0.243509 0.243509 0.243509
0.000000 0.000000 0.000000 0.000000 0.000000 0.000000 0.000000 0.000000 0.000000 0.000000 0.000000 0.000000 0.000000 0.000000 0.000000 0.000000 0.000000 0.000000 0.000000 0.000000 0.000000 0.000000 0.000000 0.000000 0.000000 0.000000 0.000000 0.000000 0.000000 0.000000 0.000000 0.000000 0.000000 0.000000 0.000000 0.000000 0.000000 0.000000 0.000000 0.000000 0.000000 0.000000 0.000000 0.000000 0.000000 0.000000 0.000000 0.000000 0.000000 0.000000 0.000000 0.000000 0.209657 0.209657 0.209657 0.209657 0.209657 0.209657 0.209657 0.209657 0.209657 0.209657 0.209657 0.209657 0.209657 0.209657 0.209657 0.209657 0.209657 0.209657 0.209657 0.209657 0.209657 0.209657 0.209657 0.209657 0.209657 0.209657 0.209657 0.209657 0.209657 0.209657 0.209657 0.209657 0.209657 0.244339 0.244339 0.244339 0.244339 0.244339 0.244339 0.244339 0.244339 0.244339 0.244339 0.244339 0.244339 0.244339 0.244339 0.244339 0.244339 0.244339 0.244339 0.244339 0.244339 0.244339 0.244339 0.244339 0.244339 0.244339 0.260378 0.260378 0.260378 0.260378 0.260378 0.260378 0.260378 0.260378 0.260378 0.260378 0.260378 0.260378 0.260378 0.260378 0.260378 0.260378 0.260378 0.260378 0.260378 0.260378 0.269680 0.269680 0.269680 0.269680 0.269680 0.269680 0.269680 0.269680 0.269680 0.269680 0.269680 0.269680 0.269680 0.269680 0.269680 0.269680 0.269680 0.269680 0.269680 0.269680 0.269680 0.269680 0.269680 0.269680 0.269680 0.269680 0.269680 0.269680 0.269680 0.269680 0.269680 0.269680 0.269680 0.280056 0.280056 0.280056 0.280056 0.280056 0.280056 0.280056 0.280056 0.280056 0.280056 0.280056 0.280056 0.280056 0.280056 0.280056 0.280056 0.280056 0.280056 0.280056 0.280056 0.280056 0.280056 0.280056 0.280056 0.280056 0.280056 0.280056 0.274721 0.274721 0.274721 0.274721 0.274721 0.274721 0.274721 0.274721 0.274721 0.274721 0.274721 0.274721 0.274721 0.285714 0.285714 0.285714 0.285714 0.285714 0.285714 0.285714 0.285714 0.285714 0.285714 0.285714 0.280056 0.280056 0.280056 0.280056 0.280056 0.280056 0.280056 0.280056 0.280056 0.280056 0.280056 0.274721 0.274721 0.274721 0.274721 0.274721 0.274721 0.274721 0.274721 0.274721 0.274721 0.274721 0.280056 0.280056 0.280056 0.280056 0.280056 0.280056 0.280056 0.280056 0.280056 0.280056 0.285714 0.285714 0.285714 0.285714 0.285714 0.285714 0.285714 0.285714 0.285714 0.269680 0.269680 0.269680 0.269680 0.269680 0.269680 0.269680 0.269680 0.269680 0.269680 0.274721 0.274721 0.274721 0.274721 0.274721 0.274721 0.274721 0.274721 0.274721 0.285714 0.285714 0.285714 0.285714 0.285714 0.285714 0.285714 0.285714 0.264906 0.264906 0.264906 0.264906 0.264906 0.264906 0.264906 0.264906 0.264906 0.274721 0.274721 0.274721 0.274721 0.274721 0.274721 0.274721 0.274721 0.269680 0.269680 0.269680 0.269680 0.269680 0.269680 0.269680 0.269680 0.269680 0.269680 0.269680 0.269680 0.269680 0.269680 0.269680 0.269680 0.280056 0.280056 0.280056 0.280056 0.280056 0.280056 0.280056 0.260378 0.260378 0.260378 0.260378 0.260378 0.260378 0.260378 0.260378 0.269680 0.269680 0.269680 0.269680 0.269680 0.269680 0.269680 0.264906 0.264906 0.264906 0.264906 0.264906 0.264906 0.264906 0.264906 0.264906 0.264906 0.264906 0.264906 0.264906 0.264906 0.260378 0.260378 0.260378 0.260378 0.260378 0.260378 0.260378 0.260378 0.260378 0.260378 0.260378 0.260378
