# Output from CTFFind version 4.1.9, run on 2019-11-02 17:43:01
# Input file: stack1_bm3d_averaged_1_0.75_0_50_half.mrc ; Number of micrographs: 1
# Pixel size: 3.000 Angstroms ; acceleration voltage: 300.0 keV ; spherical aberration: 0.00 mm ; amplitude contrast: 0.07
# Box size: 512 pixels ; min. res.: 30.0 Angstroms ; max. res.: 5.0 Angstroms ; min. def.: 5000.0 um; max. def. 50000.0 um; num. frames averaged: 1
# 6 lines per micrograph: #1 - spatial frequency (1/Angstroms); #2 - 1D rotational average of spectrum (assuming no astigmatism); #3 - 1D rotational average of spectrum; #4 - CTF fit; #5 - cross-correlation between spectrum and CTF fit; #6 - 2sigma of expected cross correlation of noise
0.000000 0.000651 0.001302 0.001953 0.002604 0.003255 0.003906 0.004557 0.005208 0.005859 0.006510 0.007161 0.007812 0.008464 0.009115 0.009766 0.010417 0.011068 0.011719 0.012370 0.013021 0.013672 0.014323 0.014974 0.015625 0.016276 0.016927 0.017578 0.018229 0.018880 0.019531 0.020182 0.020833 0.021484 0.022135 0.022786 0.023438 0.024089 0.024740 0.025391 0.026042 0.026693 0.027344 0.027995 0.028646 0.029297 0.029948 0.030599 0.031250 0.031901 0.032552 0.033203 0.033854 0.034505 0.035156 0.035807 0.036458 0.037109 0.037760 0.038411 0.039062 0.039714 0.040365 0.041016 0.041667 0.042318 0.042969 0.043620 0.044271 0.044922 0.045573 0.046224 0.046875 0.047526 0.048177 0.048828 0.049479 0.050130 0.050781 0.051432 0.052083 0.052734 0.053385 0.054036 0.054688 0.055339 0.055990 0.056641 0.057292 0.057943 0.058594 0.059245 0.059896 0.060547 0.061198 0.061849 0.062500 0.063151 0.063802 0.064453 0.065104 0.065755 0.066406 0.067057 0.067708 0.068359 0.069010 0.069661 0.070312 0.070964 0.071615 0.072266 0.072917 0.073568 0.074219 0.074870 0.075521 0.076172 0.076823 0.077474 0.078125 0.078776 0.079427 0.080078 0.080729 0.081380 0.082031 0.082682 0.083333 0.083984 0.084635 0.085286 0.085938 0.086589 0.087240 0.087891 0.088542 0.089193 0.089844 0.090495 0.091146 0.091797 0.092448 0.093099 0.093750 0.094401 0.095052 0.095703 0.096354 0.097005 0.097656 0.098307 0.098958 0.099609 0.100260 0.100911 0.101562 0.102214 0.102865 0.103516 0.104167 0.104818 0.105469 0.106120 0.106771 0.107422 0.108073 0.108724 0.109375 0.110026 0.110677 0.111328 0.111979 0.112630 0.113281 0.113932 0.114583 0.115234 0.115885 0.116536 0.117188 0.117839 0.118490 0.119141 0.119792 0.120443 0.121094 0.121745 0.122396 0.123047 0.123698 0.124349 0.125000 0.125651 0.126302 0.126953 0.127604 0.128255 0.128906 0.129557 0.130208 0.130859 0.131510 0.132161 0.132812 0.133464 0.134115 0.134766 0.135417 0.136068 0.136719 0.137370 0.138021 0.138672 0.139323 0.139974 0.140625 0.141276 0.141927 0.142578 0.143229 0.143880 0.144531 0.145182 0.145833 0.146484 0.147135 0.147786 0.148438 0.149089 0.149740 0.150391 0.151042 0.151693 0.152344 0.152995 0.153646 0.154297 0.154948 0.155599 0.156250 0.156901 0.157552 0.158203 0.158854 0.159505 0.160156 0.160807 0.161458 0.162109 0.162760 0.163411 0.164062 0.164714 0.165365 0.166016 0.166667 0.167318 0.167969 0.168620 0.169271 0.169922 0.170573 0.171224 0.171875 0.172526 0.173177 0.173828 0.174479 0.175130 0.175781 0.176432 0.177083 0.177734 0.178385 0.179036 0.179688 0.180339 0.180990 0.181641 0.182292 0.182943 0.183594 0.184245 0.184896 0.185547 0.186198 0.186849 0.187500 0.188151 0.188802 0.189453 0.190104 0.190755 0.191406 0.192057 0.192708 0.193359 0.194010 0.194661 0.195312 0.195964 0.196615 0.197266 0.197917 0.198568 0.199219 0.199870 0.200521 0.201172 0.201823 0.202474 0.203125 0.203776 0.204427 0.205078 0.205729 0.206380 0.207031 0.207682 0.208333 0.208984 0.209635 0.210286 0.210938 0.211589 0.212240 0.212891 0.213542 0.214193 0.214844 0.215495 0.216146 0.216797 0.217448 0.218099 0.218750 0.219401 0.220052 0.220703 0.221354 0.222005 0.222656 0.223307 0.223958 0.224609 0.225260 0.225911 0.226562 0.227214 0.227865 0.228516 0.229167 0.229818 0.230469 0.231120 0.231771 0.232422 0.233073 0.233724 0.234375 0.235026 0.235677
       0.33265        0.33265        0.33265        0.33265        0.33265        0.33265        0.33265        0.33265        0.33265        0.33265        0.33265        0.33265        0.33265        0.33265        0.33265        0.33265        0.33265        0.33265        0.33265        0.33265        0.33265        0.33265        0.33265        0.33265        0.33265        0.33265        0.33265        0.33265        0.33265        0.33265        0.33265        0.33265        0.33265        0.33265        0.33265        0.33265        0.33265        0.33265        0.33265        0.33265        0.33265        0.33265        0.33265        0.33265        0.33265        0.33265        0.33265        0.33265        0.33265        0.33265        0.33265        0.50176        0.71894        0.43023        0.18832       -0.08166       -0.25981       -0.06757       -0.13239       -0.05230       -0.00553       -0.14867       -0.08979       -0.05774       -0.00599       -0.15435       -0.22441       -0.34790       -0.45990       -0.55149       -0.50924       -0.43988       -0.36843       -0.54365       -0.45043       -0.62097       -0.50531       -0.47285       -0.38823       -0.38727       -0.34020       -0.25318       -0.16192       -0.14078        0.03327       -0.01195        0.12046        0.16343        0.30515        0.41115        0.45939        0.50303        0.54383        0.55233        0.68717        0.64102        0.67487        0.58968        0.55254        0.64874        0.52520        0.42610        0.38159        0.32102        0.23298        0.26011        0.25361        0.10481        0.07904       -0.00069       -0.00198        0.04398       -0.01051        0.07218        0.10830        0.23583        0.28695        0.29876        0.37822        0.56191        0.53026        0.57896        0.66491        0.70394        0.63085        0.64359        0.63422        0.55922        0.57427        0.40351        0.34518        0.26341        0.18260        0.07684        0.14205        0.11845        0.09769        0.10609        0.20528        0.21310        0.31825        0.36162        0.41233        0.49626        0.57978        0.54378        0.55617        0.60178        0.52825        0.45668        0.48505        0.32970        0.24449        0.25872        0.23821        0.14058        0.14427        0.15417        0.21706        0.23731        0.33475        0.37080        0.39312        0.46848        0.44345        0.48327        0.44970        0.46998        0.44958        0.40825        0.38667        0.35298        0.31716        0.29444        0.20385        0.18802        0.21739        0.27031        0.26704        0.35037        0.37742        0.35741        0.41239        0.44812        0.44129        0.42917        0.44712        0.38569        0.33639        0.28453        0.25686        0.29056        0.26472        0.29428        0.30038        0.34128        0.34109        0.39300        0.40413        0.42932        0.40731        0.43839        0.40144        0.35604        0.28121        0.29013        0.30594        0.26915        0.25022        0.32204        0.36792        0.34213        0.35235        0.36160        0.35888        0.41066        0.40704        0.36608        0.33945        0.30164        0.31365        0.32198        0.32176        0.30009        0.27596        0.33455        0.35796        0.38135        0.33788        0.33159        0.33709        0.34463        0.31204        0.28200        0.30092        0.30746        0.34064        0.31644        0.32695        0.35698        0.32362        0.31583        0.32760        0.30140        0.26895        0.25877        0.26321        0.30822        0.32217        0.35403        0.29997        0.30421        0.32715        0.29585        0.31519        0.28516        0.28563        0.29507        0.29299        0.30568        0.34684        0.33555        0.33120        0.34115        0.31936        0.33921        0.32211        0.31996        0.30733        0.27383        0.28723        0.30855        0.29543        0.32110        0.33195        0.33048        0.33177        0.34911        0.32552        0.28205        0.24891        0.26857        0.33160        0.34940        0.33667        0.31023        0.28969        0.29206        0.30592        0.25600        0.30036        0.31225        0.34233        0.30214        0.30417        0.27823        0.33214        0.33738        0.34026        0.30746        0.28997        0.31966        0.39609        0.32235        0.31087        0.31995        0.28253        0.28243        0.30530        0.28095        0.32719        0.23089        0.26456        0.29781        0.31179        0.30152        0.25674        0.28551        0.24406        0.22078        0.26471        0.29323        0.30852        0.27506        0.28130        0.32653        0.26472        0.22931        0.29900        0.26643        0.26306        0.28680        0.38944        0.28937        0.29213        0.26050        0.24554        0.27740        0.26370        0.23507        0.18332        0.26452        0.22879        0.23598        0.31337        0.24944        0.36704        0.33089        0.23148        0.21920        0.21417        0.24413        0.32306        0.23306        0.13938        0.18178        0.23490        0.23993        0.23740        0.17915        0.00755       -0.46558       -0.95303
2.654520 2.626515 2.598659 2.570954 2.543400 2.515995 2.488740 2.461636 2.434682 2.407878 2.381224 2.354720 2.328367 2.302164 2.276111 2.250208 2.224455 2.198852 2.173400 2.148098 2.122945 2.097944 2.073092 2.048390 2.023839 1.999438 1.975187 1.951086 1.927135 1.903335 1.879684 1.856184 1.832834 1.809634 1.786585 1.763685 1.740936 1.718337 1.695888 1.673589 1.651441 1.629442 1.607594 1.585896 1.564348 1.542950 1.521703 1.500605 1.479658 1.458861 1.438214 1.507294 1.808556 1.508452 1.140961 0.923675 0.534128 0.899417 0.620633 0.862600 0.909050 0.576889 0.702870 0.757602 0.803526 0.616780 0.521461 0.337795 0.099131 0.077714 0.048179 0.087255 0.299532 -0.040709 0.077216 -0.139386 -0.021001 -0.017994 0.080039 0.048976 0.099069 0.168043 0.272277 0.239911 0.473772 0.392202 0.543506 0.514230 0.755836 0.783326 0.864730 0.917771 0.931605 0.939699 1.072164 0.965364 1.126847 0.931298 0.843698 0.998297 0.836427 0.747112 0.612103 0.583573 0.462527 0.406953 0.505187 0.261879 0.189185 0.150052 0.015213 0.217474 -0.007155 0.108947 0.185983 0.262425 0.333973 0.340431 0.420744 0.538820 0.646543 0.537706 0.725729 0.871785 0.633450 0.700611 0.665833 0.594599 0.531290 0.468534 0.298682 0.210377 0.115124 -0.039447 -0.017749 0.052178 -0.091801 -0.053304 0.049433 0.048477 0.112061 0.222848 0.237393 0.315130 0.430985 0.428439 0.443442 0.475004 0.431115 0.310003 0.336804 0.245492 0.041998 0.059599 0.022936 -0.062742 -0.091033 -0.102853 -0.013209 -0.064580 0.069926 0.132834 0.128117 0.254592 0.223033 0.241659 0.289489 0.250942 0.248189 0.209592 0.181495 0.109673 0.106830 0.037422 0.014984 -0.126181 -0.059276 0.003990 0.006536 0.015521 0.103125 0.086517 0.131778 0.183611 0.251318 0.165107 0.197985 0.117441 0.151981 0.014620 -0.027477 0.010743 -0.016299 -0.012686 -0.000080 0.032602 0.062809 0.063546 0.140050 0.120675 0.153008 0.073773 0.156049 0.081335 -0.011190 -0.054093 -0.018127 -0.031392 -0.081294 -0.063900 0.043781 0.068239 -0.009062 0.052611 0.068585 0.072418 0.148804 0.079269 0.068490 0.040272 -0.027746 0.034859 0.011841 0.016432 0.006005 -0.018330 0.044380 0.068226 0.073610 0.036332 0.047265 0.019444 0.068404 -0.006515 -0.022686 0.018263 0.008362 0.068343 0.029132 0.041424 0.069678 0.031420 0.018647 0.037166 0.001937 -0.030503 -0.023675 -0.028414 0.028028 0.051043 0.096408 0.006947 0.050541 0.064555 0.001884 0.070163 0.026767 0.027126 0.053895 0.049803 0.052973 0.112112 0.075009 0.081677 0.088752 0.101348 0.075565 0.077227 0.086565 0.030248 -0.002853 0.044109 0.040128 0.065930 0.058785 0.095351 -0.003854 0.082527 0.075294 0.016158 0.016332 -0.076107 -0.017501 0.104868 0.062577 0.047677 0.029976 -0.027871 0.028415 0.014280 -0.051715 0.038745 0.050394 0.074300 0.032184 -0.000997 -0.006052 0.040570 0.050903 0.027550 0.023908 -0.027248 0.066801 0.115684 0.009964 -0.005318 0.020360 -0.035948 -0.022079 -0.006319 -0.042301 0.026586 -0.107974 -0.029322 -0.025778 0.022487 -0.020997 -0.065762 -0.004140 -0.055285 -0.056544 -0.054314 0.042335 0.011759 0.013805 -0.001282 0.076873 -0.034947 -0.034129 0.031427 -0.020556 0.034641 0.011485 0.188254 -0.012869 0.014163 0.049064 -0.025084 0.007592 0.011518 -0.022409 -0.133221 0.024399 -0.027179 -0.009911 0.040861 -0.033114 0.171127 0.079326 -0.006516 -0.090130 -0.023470 -0.051965 0.090656 0.276573 0.163596 0.229360 0.222589 0.319785 0.270963 0.205529 0.086013 -0.332532
0.072396 0.072910 0.074450 0.077017 0.080610 0.085228 0.090869 0.097533 0.105216 0.113916 0.123629 0.134351 0.146076 0.158797 0.172506 0.187194 0.202848 0.219455 0.237000 0.255463 0.274824 0.295058 0.316137 0.338031 0.360705 0.384117 0.408226 0.432982 0.458330 0.484213 0.510564 0.537312 0.564381 0.591687 0.619139 0.646641 0.674087 0.701367 0.728362 0.754947 0.780989 0.806348 0.830879 0.854428 0.876837 0.897940 0.917568 0.935546 0.951696 0.965838 0.977787 0.987360 0.994373 0.998644 0.999995 0.998252 0.993246 0.984819 0.972821 0.957116 0.937582 0.914112 0.886619 0.855038 0.819327 0.779469 0.735477 0.687393 0.635291 0.579283 0.519514 0.456170 0.389474 0.319692 0.247132 0.172142 0.095115 0.016483 0.063278 0.143656 0.224099 0.304023 0.382810 0.459817 0.534378 0.605811 0.673421 0.736512 0.794389 0.846370 0.891793 0.930026 0.960475 0.982596 0.995902 0.999977 0.994483 0.979171 0.953890 0.918595 0.873356 0.818366 0.753944 0.680538 0.598734 0.509249 0.412935 0.310775 0.203872 0.093449 0.019169 0.132565 0.245245 0.355657 0.462215 0.563318 0.657375 0.742835 0.818209 0.882105 0.933253 0.970537 0.993018 0.999969 0.990891 0.965541 0.923950 0.866437 0.793616 0.706407 0.606028 0.493994 0.372097 0.242390 0.107152 0.031136 0.169843 0.306229 0.437501 0.560870 0.673611 0.773130 0.857026 0.923154 0.969694 0.995199 0.998659 0.979535 0.937805 0.873983 0.789131 0.684865 0.563332 0.427186 0.279539 0.123901 0.035896 0.195784 0.351563 0.499008 0.633986 0.752578 0.851202 0.926726 0.976584 0.998875 0.992447 0.956967 0.892962 0.801844 0.685896 0.548245 0.392791 0.224116 0.047358 0.131927 0.307944 0.474837 0.626892 0.758732 0.865527 0.943179 0.988496 0.999349 0.974782 0.915101 0.821901 0.698068 0.547706 0.376037 0.189232 0.005783 0.201587 0.390525 0.565019 0.717871 0.842578 0.933623 0.986740 0.999144 0.969698 0.899021 0.789526 0.645376 0.472359 0.277686 0.069717 0.142382 0.349030 0.540673 0.708214 0.843477 0.939619 0.991502 0.996008 0.952253 0.861707 0.728198 0.557789 0.358559 0.140233 0.086252 0.309290 0.517188 0.698793 0.844100 0.944835 0.994957 0.991063 0.932657 0.822268 0.665401 0.470316 0.247631 0.009792 0.229615 0.456613 0.657666 0.820496 0.934862 0.993244 0.991386 0.928654 0.808182 0.636782 0.424625 0.184681 0.068030 0.317358 0.547045 0.741798 0.888331 0.976306 0.999123 0.954467 0.844592 0.676282 0.460517 0.211806 0.052739 0.314547 0.554885 0.756210 0.903474 0.985304 0.994933 0.930834 0.796971 0.602646 0.361920 0.092682 0.184664 0.448692 0.678638 0.856029 0.966236 0.999733 0.952997 0.828951 0.636882 0.391845 0.113549 0.175168 0.450186 0.688127 0.868350 0.974807 0.997546 0.933722 0.788022 0.572444 0.305388 0.010179 0.286928 0.559055 0.781148 0.932325 0.997908 0.970943 0.853029 0.654378 0.393029 0.093320 0.216313 0.506016 0.747384 0.916283 0.995349 0.975862 0.858820 0.655057 0.384371 0.073697 0.245494 0.540346 0.780022 0.938956 0.999680 0.954851 0.808257 0.574659 0.278426 0.048884 0.371841 0.654945 0.866555 0.982500 0.988942 0.884166 0.679030 0.395987 0.066765 0.271108 0.578535 0.819390 0.964830 0.996844 0.910634 0.715460 0.433810 0.098961 0.248861 0.567246 0.816800 0.966070 0.995632 0.900761 0.692334 0.395750 0.048002 0.306838 0.623173 0.859731 0.985060 0.981826 0.849382 0.604188 0.277934 0.086383 0.440043 0.735118 0.930968 0.999999
1.000000 1.000000 1.000000 1.000000 1.000000 1.000000 1.000000 1.000000 1.000000 1.000000 1.000000 1.000000 1.000000 1.000000 1.000000 1.000000 1.000000 1.000000 1.000000 1.000000 1.000000 1.000000 1.000000 1.000000 1.000000 1.000000 1.000000 1.000000 1.000000 1.000000 1.000000 1.000000 1.000000 1.000000 1.000000 1.000000 1.000000 1.000000 1.000000 1.000000 1.000000 1.000000 1.000000 1.000000 1.000000 1.000000 1.000000 1.000000 1.000000 1.000000 1.000000 1.000000 0.917253 0.917253 0.907240 0.907240 0.907240 0.907240 0.907240 0.907240 0.907240 0.907240 0.907240 0.907240 0.907240 0.907240 0.907240 0.907240 0.907240 0.907240 0.907240 0.907240 0.907240 0.907240 0.907240 0.907240 0.907240 0.907240 0.907240 0.907240 0.907240 0.907240 0.907240 0.907240 0.907240 0.907240 0.907240 0.907240 0.907240 0.907240 0.907240 0.907240 0.907240 0.907240 0.907240 0.904130 0.908590 0.910413 0.908594 0.912173 0.912266 0.911569 0.911887 0.911503 0.911767 0.913117 0.923691 0.934813 0.946194 0.946899 0.951918 0.956268 0.958553 0.959641 0.961175 0.967311 0.966151 0.965583 0.966303 0.967939 0.970217 0.968705 0.968603 0.971744 0.972495 0.970652 0.968694 0.968068 0.966471 0.965587 0.965140 0.965292 0.965210 0.965711 0.965933 0.965759 0.965898 0.965919 0.964144 0.964319 0.966619 0.967758 0.967525 0.966117 0.963673 0.967577 0.968031 0.967646 0.967536 0.967034 0.967401 0.954157 0.949183 0.949162 0.944644 0.943752 0.941322 0.938931 0.935674 0.935871 0.936323 0.937254 0.932265 0.920742 0.907048 0.892437 0.916056 0.901089 0.886205 0.865701 0.866041 0.866122 0.866940 0.861929 0.854465 0.850120 0.847139 0.848309 0.845101 0.847110 0.845238 0.836048 0.838512 0.836953 0.810337 0.792851 0.778529 0.778403 0.776366 0.777774 0.779456 0.778005 0.785997 0.773543 0.771788 0.764499 0.746640 0.708047 0.694509 0.704360 0.712744 0.718254 0.714697 0.699527 0.664150 0.673432 0.694498 0.692895 0.695786 0.684798 0.676503 0.678467 0.681746 0.670702 0.660457 0.659458 0.657167 0.665946 0.672032 0.674544 0.662882 0.645917 0.632434 0.617750 0.627716 0.634179 0.599100 0.592897 0.578155 0.569572 0.554320 0.540678 0.537441 0.511998 0.503859 0.506604 0.511038 0.514216 0.520745 0.522857 0.508985 0.527697 0.536274 0.561595 0.545622 0.543875 0.544607 0.547172 0.535148 0.519473 0.519921 0.520764 0.529610 0.553086 0.590908 0.574772 0.561902 0.550572 0.553970 0.511335 0.513184 0.534358 0.513629 0.459961 0.401708 0.401021 0.358247 0.355062 0.333621 0.322838 0.320210 0.315036 0.307612 0.293429 0.277109 0.206391 0.165211 0.149127 0.138496 0.130855 0.152229 0.153150 0.151364 0.166488 0.215241 0.217295 0.209281 0.177602 0.170267 0.145831 0.139506 0.164042 0.118360 0.109133 0.102177 0.080461 0.052720 0.006211 0.025646 -0.064145 -0.089302 -0.092187 -0.068998 -0.053759 -0.054255 -0.051890 -0.090653 -0.082151 -0.039651 -0.035417 -0.044677 -0.100526 -0.079913 -0.068934 -0.069055 -0.086917 -0.098501 -0.092312 -0.101697 -0.101609 -0.096011 -0.042832 0.018868 0.022411 0.010990 0.007586 -0.004913 -0.014361 -0.003158 0.014734 0.021337 -0.000509 0.001225 0.000477 -0.040217 -0.040217 -0.043071 -0.043071 -0.043071 -0.043071 -0.043071 -0.043071 -0.043071 -0.043071 -0.043071 -0.044733 -0.044733 -0.044733 -0.044733 -0.044733 -0.044733 -0.044733 -0.044733 -0.044733 -0.044733 -0.044733 -0.044733 -0.044733 -0.044733 -0.044733 -0.044733 -0.044733 -0.044733
0.000000 0.000000 0.000000 0.000000 0.000000 0.000000 0.000000 0.000000 0.000000 0.000000 0.000000 0.000000 0.000000 0.000000 0.000000 0.000000 0.000000 0.000000 0.000000 0.000000 0.000000 0.000000 0.000000 0.000000 0.000000 0.000000 0.000000 0.000000 0.000000 0.000000 0.000000 0.000000 0.000000 0.000000 0.000000 0.000000 0.000000 0.000000 0.000000 0.000000 0.000000 0.000000 0.000000 0.000000 0.000000 0.000000 0.000000 0.000000 0.000000 0.000000 0.000000 0.000000 0.181818 0.181818 0.199007 0.199007 0.199007 0.199007 0.199007 0.199007 0.199007 0.199007 0.199007 0.199007 0.199007 0.199007 0.199007 0.199007 0.199007 0.199007 0.199007 0.199007 0.199007 0.199007 0.199007 0.199007 0.199007 0.199007 0.199007 0.199007 0.199007 0.199007 0.199007 0.199007 0.199007 0.199007 0.199007 0.199007 0.199007 0.199007 0.199007 0.199007 0.199007 0.199007 0.199007 0.230940 0.230940 0.230940 0.230940 0.230940 0.230940 0.230940 0.230940 0.230940 0.230940 0.230940 0.230940 0.230940 0.230940 0.230940 0.230940 0.230940 0.230940 0.230940 0.230940 0.230940 0.230940 0.230940 0.230940 0.230940 0.230940 0.230940 0.230940 0.244339 0.244339 0.244339 0.244339 0.244339 0.244339 0.244339 0.244339 0.244339 0.244339 0.244339 0.244339 0.244339 0.244339 0.244339 0.244339 0.244339 0.244339 0.244339 0.244339 0.244339 0.244339 0.244339 0.251976 0.251976 0.251976 0.251976 0.251976 0.251976 0.251976 0.251976 0.251976 0.251976 0.251976 0.251976 0.251976 0.251976 0.251976 0.251976 0.251976 0.251976 0.251976 0.251976 0.264906 0.264906 0.264906 0.264906 0.264906 0.264906 0.264906 0.264906 0.264906 0.264906 0.264906 0.264906 0.264906 0.264906 0.264906 0.264906 0.264906 0.264906 0.264906 0.264906 0.264906 0.264906 0.264906 0.264906 0.264906 0.264906 0.264906 0.264906 0.264906 0.264906 0.264906 0.264906 0.264906 0.264906 0.264906 0.264906 0.264906 0.264906 0.264906 0.264906 0.264906 0.264906 0.264906 0.264906 0.264906 0.264906 0.264906 0.264906 0.264906 0.264906 0.264906 0.264906 0.264906 0.264906 0.264906 0.264906 0.264906 0.264906 0.264906 0.264906 0.264906 0.264906 0.264906 0.264906 0.264906 0.264906 0.264906 0.264906 0.264906 0.264906 0.264906 0.264906 0.264906 0.264906 0.264906 0.269680 0.269680 0.269680 0.269680 0.269680 0.269680 0.269680 0.269680 0.269680 0.269680 0.269680 0.269680 0.264906 0.264906 0.264906 0.264906 0.264906 0.264906 0.264906 0.264906 0.264906 0.264906 0.264906 0.264906 0.269680 0.269680 0.269680 0.269680 0.269680 0.269680 0.269680 0.269680 0.269680 0.269680 0.269680 0.264906 0.264906 0.264906 0.264906 0.264906 0.264906 0.264906 0.264906 0.264906 0.264906 0.264906 0.256074 0.256074 0.256074 0.256074 0.256074 0.256074 0.256074 0.256074 0.256074 0.256074 0.256074 0.264906 0.264906 0.264906 0.264906 0.264906 0.264906 0.264906 0.264906 0.264906 0.264906 0.260378 0.260378 0.260378 0.260378 0.260378 0.260378 0.260378 0.260378 0.260378 0.260378 0.264906 0.264906 0.264906 0.264906 0.264906 0.264906 0.264906 0.264906 0.264906 0.260378 0.260378 0.260378 0.260378 0.260378 0.260378 0.260378 0.260378 0.260378 0.256074 0.256074 0.256074 0.256074 0.256074 0.256074 0.256074 0.256074 0.256074 0.251976 0.251976 0.251976 0.251976 0.251976 0.251976 0.251976 0.251976 0.251976 0.251976 0.251976 0.251976 0.251976 0.251976 0.251976 0.251976 0.251976 0.251976
