# Output from CTFFind version 4.1.9, run on 2019-11-03 19:00:10
# Input file: stack1_bm3d_averaged_1_3.25_0_250_half.mrc ; Number of micrographs: 1
# Pixel size: 3.000 Angstroms ; acceleration voltage: 300.0 keV ; spherical aberration: 0.00 mm ; amplitude contrast: 0.07
# Box size: 512 pixels ; min. res.: 30.0 Angstroms ; max. res.: 5.0 Angstroms ; min. def.: 5000.0 um; max. def. 50000.0 um; num. frames averaged: 1
# 6 lines per micrograph: #1 - spatial frequency (1/Angstroms); #2 - 1D rotational average of spectrum (assuming no astigmatism); #3 - 1D rotational average of spectrum; #4 - CTF fit; #5 - cross-correlation between spectrum and CTF fit; #6 - 2sigma of expected cross correlation of noise
0.000000 0.000651 0.001302 0.001953 0.002604 0.003255 0.003906 0.004557 0.005208 0.005859 0.006510 0.007161 0.007812 0.008464 0.009115 0.009766 0.010417 0.011068 0.011719 0.012370 0.013021 0.013672 0.014323 0.014974 0.015625 0.016276 0.016927 0.017578 0.018229 0.018880 0.019531 0.020182 0.020833 0.021484 0.022135 0.022786 0.023438 0.024089 0.024740 0.025391 0.026042 0.026693 0.027344 0.027995 0.028646 0.029297 0.029948 0.030599 0.031250 0.031901 0.032552 0.033203 0.033854 0.034505 0.035156 0.035807 0.036458 0.037109 0.037760 0.038411 0.039062 0.039714 0.040365 0.041016 0.041667 0.042318 0.042969 0.043620 0.044271 0.044922 0.045573 0.046224 0.046875 0.047526 0.048177 0.048828 0.049479 0.050130 0.050781 0.051432 0.052083 0.052734 0.053385 0.054036 0.054688 0.055339 0.055990 0.056641 0.057292 0.057943 0.058594 0.059245 0.059896 0.060547 0.061198 0.061849 0.062500 0.063151 0.063802 0.064453 0.065104 0.065755 0.066406 0.067057 0.067708 0.068359 0.069010 0.069661 0.070312 0.070964 0.071615 0.072266 0.072917 0.073568 0.074219 0.074870 0.075521 0.076172 0.076823 0.077474 0.078125 0.078776 0.079427 0.080078 0.080729 0.081380 0.082031 0.082682 0.083333 0.083984 0.084635 0.085286 0.085938 0.086589 0.087240 0.087891 0.088542 0.089193 0.089844 0.090495 0.091146 0.091797 0.092448 0.093099 0.093750 0.094401 0.095052 0.095703 0.096354 0.097005 0.097656 0.098307 0.098958 0.099609 0.100260 0.100911 0.101562 0.102214 0.102865 0.103516 0.104167 0.104818 0.105469 0.106120 0.106771 0.107422 0.108073 0.108724 0.109375 0.110026 0.110677 0.111328 0.111979 0.112630 0.113281 0.113932 0.114583 0.115234 0.115885 0.116536 0.117188 0.117839 0.118490 0.119141 0.119792 0.120443 0.121094 0.121745 0.122396 0.123047 0.123698 0.124349 0.125000 0.125651 0.126302 0.126953 0.127604 0.128255 0.128906 0.129557 0.130208 0.130859 0.131510 0.132161 0.132812 0.133464 0.134115 0.134766 0.135417 0.136068 0.136719 0.137370 0.138021 0.138672 0.139323 0.139974 0.140625 0.141276 0.141927 0.142578 0.143229 0.143880 0.144531 0.145182 0.145833 0.146484 0.147135 0.147786 0.148438 0.149089 0.149740 0.150391 0.151042 0.151693 0.152344 0.152995 0.153646 0.154297 0.154948 0.155599 0.156250 0.156901 0.157552 0.158203 0.158854 0.159505 0.160156 0.160807 0.161458 0.162109 0.162760 0.163411 0.164062 0.164714 0.165365 0.166016 0.166667 0.167318 0.167969 0.168620 0.169271 0.169922 0.170573 0.171224 0.171875 0.172526 0.173177 0.173828 0.174479 0.175130 0.175781 0.176432 0.177083 0.177734 0.178385 0.179036 0.179688 0.180339 0.180990 0.181641 0.182292 0.182943 0.183594 0.184245 0.184896 0.185547 0.186198 0.186849 0.187500 0.188151 0.188802 0.189453 0.190104 0.190755 0.191406 0.192057 0.192708 0.193359 0.194010 0.194661 0.195312 0.195964 0.196615 0.197266 0.197917 0.198568 0.199219 0.199870 0.200521 0.201172 0.201823 0.202474 0.203125 0.203776 0.204427 0.205078 0.205729 0.206380 0.207031 0.207682 0.208333 0.208984 0.209635 0.210286 0.210938 0.211589 0.212240 0.212891 0.213542 0.214193 0.214844 0.215495 0.216146 0.216797 0.217448 0.218099 0.218750 0.219401 0.220052 0.220703 0.221354 0.222005 0.222656 0.223307 0.223958 0.224609 0.225260 0.225911 0.226562 0.227214 0.227865 0.228516 0.229167 0.229818 0.230469 0.231120 0.231771 0.232422 0.233073 0.233724 0.234375 0.235026 0.235677
       0.34689        0.34689        0.34689        0.34689        0.34689        0.34689        0.34689        0.34689        0.34689        0.34689        0.34689        0.34689        0.34689        0.34689        0.34689        0.34689        0.34689        0.34689        0.34689        0.34689        0.34689        0.34689        0.34689        0.34689        0.34689        0.34689        0.34689        0.34689        0.34689        0.34689        0.34689        0.34689        0.34689        0.34689        0.34689        0.34689        0.34689        0.34689        0.34689        0.34689        0.34689        0.34689        0.34689        0.34689        0.34689        0.34689        0.34689        0.34689        0.34689        0.34689        0.34689        0.48826        0.70665        0.39558        0.20274       -0.04073       -0.22722       -0.04078       -0.11300       -0.08259        0.01542       -0.11489       -0.09755       -0.04644       -0.03367       -0.12485       -0.16364       -0.30137       -0.46215       -0.55290       -0.50670       -0.43139       -0.34435       -0.54119       -0.40397       -0.52592       -0.44355       -0.45439       -0.34791       -0.32668       -0.29107       -0.19781       -0.11650       -0.11219        0.03448        0.01789        0.17830        0.17478        0.32838        0.41909        0.50680        0.55328        0.56593        0.58402        0.71366        0.63353        0.65848        0.58408        0.55028        0.61542        0.50820        0.47215        0.40681        0.31773        0.28501        0.29440        0.25387        0.10983        0.09841       -0.00580        0.04427        0.05285        0.01381        0.08610        0.14257        0.23211        0.29474        0.28899        0.39188        0.54246        0.55112        0.56422        0.66962        0.64450        0.62607        0.66576        0.64170        0.53609        0.52788        0.42931        0.36067        0.27922        0.20451        0.14647        0.15708        0.12522        0.16449        0.15668        0.23751        0.24301        0.33337        0.37011        0.40738        0.50453        0.56030        0.57675        0.54749        0.60016        0.52054        0.47843        0.50360        0.37394        0.29210        0.27926        0.26619        0.18745        0.20050        0.19201        0.22048        0.24814        0.33834        0.39196        0.42547        0.43973        0.45462        0.48504        0.43990        0.50653        0.43900        0.37604        0.35808        0.38279        0.32924        0.29866        0.23802        0.26312        0.24445        0.27052        0.28143        0.37730        0.39342        0.39289        0.43266        0.45971        0.43838        0.43850        0.47079        0.37181        0.34532        0.32343        0.28128        0.33079        0.28221        0.31275        0.33124        0.33291        0.34340        0.42051        0.38918        0.42566        0.39639        0.41629        0.37949        0.38257        0.30701        0.29753        0.28139        0.27425        0.28573        0.35345        0.37164        0.36432        0.38037        0.38725        0.35940        0.43979        0.40120        0.38475        0.36416        0.32440        0.30164        0.32467        0.31579        0.35330        0.31684        0.33675        0.35482        0.38006        0.38282        0.35792        0.35632        0.36746        0.35374        0.31142        0.33485        0.32651        0.34912        0.32303        0.34683        0.36054        0.32316        0.33684        0.36153        0.32426        0.30584        0.30361        0.30658        0.31713        0.31373        0.34937        0.31205        0.32092        0.32933        0.32328        0.31924        0.30600        0.31364        0.31339        0.31551        0.31448        0.32083        0.31638        0.33867        0.32574        0.39480        0.38618        0.32032        0.35891        0.34821        0.25683        0.26935        0.32625        0.30554        0.28639        0.33487        0.31173        0.33419        0.37394        0.37810        0.31781        0.29170        0.29261        0.33668        0.35268        0.39356        0.34082        0.31472        0.30897        0.29138        0.26799        0.30229        0.29924        0.33251        0.31126        0.28800        0.27234        0.33954        0.35725        0.33894        0.27811        0.30378        0.35437        0.36712        0.37548        0.34551        0.33106        0.29872        0.31213        0.31420        0.33644        0.33085        0.24027        0.23209        0.31336        0.31267        0.30368        0.27920        0.27424        0.24770        0.25831        0.29232        0.33076        0.29855        0.27722        0.33128        0.39948        0.35449        0.26570        0.27532        0.26261        0.27856        0.31734        0.36224        0.30168        0.31409        0.32168        0.25747        0.31219        0.26115        0.24174        0.20743        0.26649        0.21919        0.23008        0.28969        0.25123        0.34274        0.32802        0.25826        0.21059        0.17213        0.31113        0.37646        0.31232        0.15946        0.16662        0.30629        0.23495        0.15887       -0.08458        0.00312       -0.60073       -1.09399
2.761638 2.732366 2.703253 2.674300 2.645506 2.616872 2.588396 2.560081 2.531924 2.503927 2.476089 2.448410 2.420891 2.393532 2.366331 2.339290 2.312408 2.285686 2.259123 2.232719 2.206474 2.180389 2.154464 2.128697 2.103090 2.077643 2.052354 2.027225 2.002255 1.977445 1.952794 1.928303 1.903970 1.879797 1.855784 1.831929 1.808234 1.784699 1.761323 1.738106 1.715048 1.692150 1.669411 1.646832 1.624411 1.602150 1.580049 1.558107 1.536324 1.514701 1.493236 1.528661 1.890699 1.721863 1.175680 1.058996 0.536020 0.942183 0.640785 0.823822 0.905891 0.646832 0.658453 0.783113 0.757183 0.616179 0.585136 0.379678 0.067606 0.028220 0.014468 0.009076 0.322231 -0.082177 0.044658 -0.060678 -0.003070 -0.029764 0.082253 0.072934 0.131693 0.195582 0.308101 0.269772 0.453594 0.383514 0.627295 0.541753 0.780795 0.810411 0.928426 1.036563 0.981848 0.999223 1.141823 1.065551 1.095858 0.933103 0.910598 0.977694 0.835411 0.817062 0.666892 0.559672 0.526211 0.484014 0.479324 0.252231 0.225547 0.113656 0.053611 0.182026 0.017875 0.094232 0.202877 0.263431 0.335938 0.339868 0.454972 0.538305 0.680295 0.541981 0.811568 0.754482 0.655539 0.765631 0.716585 0.619992 0.474376 0.495782 0.316320 0.244475 0.111677 0.042672 0.003294 0.016399 -0.049720 0.008571 0.084552 0.082933 0.118316 0.242738 0.253917 0.349252 0.450813 0.459220 0.407975 0.510216 0.447512 0.320813 0.354476 0.307618 0.077553 0.083208 0.034817 -0.027898 -0.032745 -0.086316 -0.026668 -0.036048 0.055802 0.134561 0.202263 0.226312 0.226146 0.249532 0.307485 0.268110 0.284346 0.219832 0.139409 0.141226 0.136044 0.041692 0.030769 -0.051141 0.019599 0.007160 0.032666 0.060153 0.154125 0.131152 0.159263 0.214837 0.264349 0.170256 0.254714 0.174522 0.144362 0.074113 0.008608 0.058186 0.017340 0.022947 0.035869 0.096406 0.023678 0.109636 0.198947 0.069926 0.179296 0.123765 0.138912 0.093156 0.088320 -0.021755 -0.000642 -0.033679 -0.057582 0.009128 0.092401 0.101038 0.023376 0.131575 0.078828 0.082360 0.165870 0.070306 0.096704 0.056927 -0.027370 -0.003424 0.017763 -0.008749 0.054757 0.003927 0.011506 0.055436 0.101715 0.058095 0.062013 0.017452 0.076225 0.017094 0.005747 0.022412 0.009545 0.051871 0.018064 0.038164 0.046403 -0.015678 0.018754 0.044128 -0.013684 -0.041625 -0.012337 -0.020433 -0.035826 -0.010548 0.029167 -0.015835 -0.014565 0.014540 0.003649 -0.005693 0.000087 -0.013145 -0.021728 0.023419 -0.012360 0.005932 -0.026234 0.042457 0.016445 0.119264 0.081738 0.026950 0.055906 0.022264 -0.082977 -0.019275 0.021579 -0.009735 -0.017396 0.014621 0.013829 0.022357 0.065362 0.042188 0.000479 -0.085841 -0.009047 0.015201 0.033515 0.094381 0.005677 -0.036073 -0.007465 -0.026203 -0.099869 -0.017668 0.006335 -0.004359 0.019330 -0.057799 -0.059243 0.043342 0.055179 0.002485 -0.035957 -0.021865 0.099012 0.070102 0.068065 0.013224 0.026183 0.011250 -0.053092 0.032088 -0.006114 0.059361 -0.137729 -0.080199 0.017381 0.036993 0.007870 -0.060364 -0.035939 -0.034199 -0.030715 -0.038871 0.087345 -0.000140 0.001277 0.071268 0.164501 0.141438 0.007762 0.041167 0.015607 0.089947 0.083147 0.192815 0.074043 0.113670 0.098437 0.057080 0.170720 0.038529 0.042778 -0.032971 0.124473 0.033116 0.022413 0.097476 0.106657 0.210789 0.157074 0.131262 -0.032112 0.009120 0.157171 0.288932 0.162368 0.280583 0.216545 0.460104 0.291169 0.223439 -0.271782 0.009739 -1.366043
0.072396 0.072907 0.074441 0.076996 0.080573 0.085171 0.090787 0.097421 0.105070 0.113731 0.123402 0.134076 0.145749 0.158414 0.172064 0.186687 0.202273 0.218809 0.236278 0.254663 0.273942 0.294092 0.315085 0.336890 0.359473 0.382794 0.406811 0.431474 0.456732 0.482525 0.508788 0.535453 0.562442 0.589673 0.617056 0.644496 0.671889 0.699126 0.726089 0.752655 0.778692 0.804063 0.828622 0.852218 0.874694 0.895887 0.915628 0.933745 0.950061 0.964396 0.976569 0.986397 0.993697 0.998289 0.999993 0.998638 0.994055 0.986085 0.974578 0.959398 0.940420 0.917537 0.890661 0.859721 0.824675 0.785501 0.742207 0.694831 0.643443 0.588146 0.529081 0.466424 0.400393 0.331245 0.259277 0.184831 0.108289 0.030073 0.049351 0.129481 0.209775 0.289658 0.368523 0.445734 0.520634 0.592549 0.660789 0.724663 0.783480 0.836558 0.883237 0.922882 0.954893 0.978720 0.993866 0.999903 0.996477 0.983323 0.960267 0.927243 0.884294 0.831583 0.769398 0.698158 0.618410 0.530838 0.436258 0.335615 0.229977 0.120532 0.008572 0.104516 0.217265 0.328146 0.435591 0.538010 0.633818 0.721461 0.799441 0.866349 0.920887 0.961903 0.988416 0.999641 0.995021 0.974243 0.937259 0.884304 0.815906 0.732892 0.636388 0.527813 0.408871 0.281526 0.147982 0.010644 0.127912 0.264992 0.397833 0.523657 0.639729 0.743427 0.832297 0.904123 0.956986 0.989327 0.999996 0.988301 0.954050 0.897576 0.819753 0.722005 0.606288 0.475076 0.331308 0.178345 0.019892 0.140081 0.297434 0.447967 0.587529 0.712137 0.818100 0.902132 0.961470 0.993971 0.998212 0.973555 0.920202 0.839226 0.732573 0.603040 0.454218 0.290410 0.116527 0.062056 0.239655 0.410452 0.568690 0.708875 0.825968 0.915583 0.974171 0.999172 0.989152 0.943893 0.864453 0.753172 0.613635 0.450580 0.269765 0.077779 0.118181 0.310577 0.491809 0.654527 0.791936 0.898094 0.968187 0.998779 0.987997 0.935672 0.843405 0.714562 0.554182 0.368819 0.166293 0.044609 0.254512 0.453854 0.633335 0.784351 0.899432 0.972634 0.999878 0.979207 0.910956 0.797809 0.644738 0.458837 0.249018 0.025618 0.200091 0.416457 0.612063 0.776325 0.900094 0.976199 0.999893 0.969196 0.885083 0.751529 0.575368 0.365999 0.134921 0.104871 0.339596 0.555475 0.739554 0.880495 0.969315 0.999998 0.969954 0.880276 0.735781 0.544817 0.318831 0.071735 0.180926 0.422931 0.638427 0.812979 0.934581 0.994506 0.988010 0.914750 0.778934 0.589156 0.357917 0.100865 0.164245 0.418728 0.644308 0.824446 0.945572 0.998183 0.977637 0.884636 0.725310 0.510904 0.257038 0.017345 0.291384 0.543858 0.754838 0.907297 0.988537 0.991314 0.914561 0.763631 0.550020 0.290580 0.006255 0.279573 0.542978 0.761508 0.916129 0.992954 0.984560 0.890792 0.718960 0.483369 0.204220 0.094048 0.384871 0.641901 0.841421 0.964585 0.999276 0.941393 0.795425 0.574218 0.297971 0.007542 0.313306 0.589817 0.809920 0.951546 0.999996 0.949574 0.804357 0.578008 0.292605 0.023406 0.338002 0.618792 0.836375 0.967486 0.997566 0.922497 0.749275 0.495494 0.187701 0.141317 0.455938 0.721583 0.908539 0.995366 0.971474 0.838546 0.610603 0.312679 0.021826 0.354791 0.647710 0.866171 0.983956 0.986321 0.871971 0.653503 0.356169 0.015100 0.328759 0.633526 0.861512 0.983952 0.984762 0.862801 0.632320 0.321472 0.031004 0.380487 0.682123 0.896599 0.995360 0.964557 0.807157 0.542868 0.205880 0.159469 0.504410 0.782248 0.954761
1.000000 1.000000 1.000000 1.000000 1.000000 1.000000 1.000000 1.000000 1.000000 1.000000 1.000000 1.000000 1.000000 1.000000 1.000000 1.000000 1.000000 1.000000 1.000000 1.000000 1.000000 1.000000 1.000000 1.000000 1.000000 1.000000 1.000000 1.000000 1.000000 1.000000 1.000000 1.000000 1.000000 1.000000 1.000000 1.000000 1.000000 1.000000 1.000000 1.000000 1.000000 1.000000 1.000000 1.000000 1.000000 1.000000 1.000000 1.000000 1.000000 1.000000 1.000000 1.000000 0.907485 0.907485 0.907485 0.892188 0.892188 0.892188 0.892188 0.892188 0.892188 0.892188 0.892188 0.892188 0.892188 0.892188 0.892188 0.892188 0.892188 0.892188 0.892188 0.892188 0.892188 0.892188 0.892188 0.892188 0.892188 0.892188 0.892188 0.892188 0.892188 0.892188 0.892188 0.892188 0.892188 0.892188 0.892188 0.892188 0.892188 0.892188 0.892188 0.892188 0.892188 0.892188 0.892188 0.892188 0.897450 0.899511 0.900899 0.904365 0.905065 0.904435 0.903809 0.903398 0.903797 0.904869 0.912585 0.931936 0.943996 0.949316 0.954584 0.963303 0.965040 0.964503 0.970593 0.975697 0.974271 0.973582 0.973899 0.975244 0.977105 0.974314 0.974748 0.974554 0.978026 0.978410 0.975029 0.973864 0.973009 0.972186 0.971753 0.971811 0.972025 0.972167 0.972690 0.972538 0.972749 0.972915 0.968049 0.967419 0.965693 0.965393 0.965199 0.964675 0.967676 0.964145 0.963830 0.963883 0.963978 0.963553 0.963126 0.963493 0.959971 0.960182 0.951451 0.949812 0.948677 0.947398 0.944612 0.941204 0.941784 0.944237 0.942568 0.935794 0.931774 0.900778 0.894994 0.879756 0.879521 0.864071 0.867971 0.868853 0.870297 0.870209 0.867629 0.867039 0.865803 0.867771 0.866916 0.864483 0.862677 0.862394 0.846775 0.850583 0.843242 0.837392 0.820384 0.817962 0.817647 0.816466 0.817048 0.817234 0.822029 0.822451 0.819544 0.814488 0.809581 0.788621 0.762702 0.761413 0.772925 0.774794 0.774095 0.752473 0.730697 0.741037 0.749734 0.754927 0.760931 0.761328 0.743280 0.727484 0.712608 0.684158 0.686500 0.681444 0.686545 0.676744 0.673584 0.657309 0.645246 0.639432 0.651164 0.668887 0.659308 0.642275 0.632385 0.624348 0.631367 0.568273 0.574625 0.556372 0.534334 0.530074 0.535248 0.556550 0.561899 0.560726 0.547263 0.527726 0.541138 0.538793 0.521115 0.534646 0.516146 0.500642 0.502440 0.501999 0.488261 0.470447 0.472813 0.475032 0.476459 0.484333 0.482709 0.482448 0.471734 0.449566 0.447330 0.448070 0.477104 0.490203 0.462494 0.423808 0.349315 0.281387 0.293369 0.267473 0.274400 0.285037 0.278513 0.271206 0.258880 0.232353 0.226452 0.161343 0.083493 0.067453 0.058627 0.073385 0.076245 0.108157 0.107549 0.105655 0.150097 0.177708 0.165259 0.146003 0.141358 0.142127 0.104267 0.057250 0.028649 -0.012396 -0.019018 -0.035617 -0.011572 -0.002109 0.025395 0.021304 -0.032729 -0.043206 -0.040784 -0.032728 -0.016157 -0.035243 -0.043560 -0.063820 -0.048590 -0.032711 -0.033397 -0.057258 -0.012013 -0.019376 -0.016779 -0.038184 -0.039299 -0.045334 -0.033026 -0.054476 -0.013276 0.008096 0.014114 0.066124 0.086218 0.098404 0.090202 0.097012 0.077860 0.101232 0.135239 0.141341 0.161967 0.104343 0.067082 0.067082 0.067082 0.040453 0.040453 0.040453 0.040453 0.040453 0.040453 0.040453 0.040453 0.040453 0.025512 0.025512 0.025512 0.025512 0.025512 0.025512 0.025512 0.025512 0.025512 0.025512 0.025512 0.025512 0.025512 0.025512 0.025512 0.025512 0.025512
0.000000 0.000000 0.000000 0.000000 0.000000 0.000000 0.000000 0.000000 0.000000 0.000000 0.000000 0.000000 0.000000 0.000000 0.000000 0.000000 0.000000 0.000000 0.000000 0.000000 0.000000 0.000000 0.000000 0.000000 0.000000 0.000000 0.000000 0.000000 0.000000 0.000000 0.000000 0.000000 0.000000 0.000000 0.000000 0.000000 0.000000 0.000000 0.000000 0.000000 0.000000 0.000000 0.000000 0.000000 0.000000 0.000000 0.000000 0.000000 0.000000 0.000000 0.000000 0.000000 0.180334 0.180334 0.180334 0.199007 0.199007 0.199007 0.199007 0.199007 0.199007 0.199007 0.199007 0.199007 0.199007 0.199007 0.199007 0.199007 0.199007 0.199007 0.199007 0.199007 0.199007 0.199007 0.199007 0.199007 0.199007 0.199007 0.199007 0.199007 0.199007 0.199007 0.199007 0.199007 0.199007 0.199007 0.199007 0.199007 0.199007 0.199007 0.199007 0.199007 0.199007 0.199007 0.199007 0.199007 0.230940 0.230940 0.230940 0.230940 0.230940 0.230940 0.230940 0.230940 0.230940 0.230940 0.230940 0.230940 0.230940 0.230940 0.230940 0.230940 0.230940 0.230940 0.230940 0.230940 0.230940 0.230940 0.230940 0.230940 0.230940 0.230940 0.230940 0.230940 0.248069 0.248069 0.248069 0.248069 0.248069 0.248069 0.248069 0.248069 0.248069 0.248069 0.248069 0.248069 0.248069 0.248069 0.248069 0.248069 0.248069 0.248069 0.248069 0.248069 0.248069 0.248069 0.251976 0.251976 0.251976 0.251976 0.251976 0.251976 0.251976 0.251976 0.251976 0.251976 0.251976 0.251976 0.251976 0.251976 0.251976 0.251976 0.251976 0.251976 0.251976 0.251976 0.256074 0.256074 0.256074 0.256074 0.256074 0.256074 0.256074 0.256074 0.256074 0.256074 0.256074 0.256074 0.256074 0.256074 0.256074 0.256074 0.256074 0.256074 0.264906 0.264906 0.264906 0.264906 0.264906 0.264906 0.264906 0.264906 0.264906 0.264906 0.264906 0.264906 0.264906 0.264906 0.264906 0.264906 0.264906 0.264906 0.264906 0.264906 0.264906 0.264906 0.264906 0.264906 0.264906 0.264906 0.264906 0.264906 0.264906 0.264906 0.264906 0.274721 0.274721 0.274721 0.274721 0.274721 0.274721 0.274721 0.274721 0.274721 0.274721 0.274721 0.274721 0.274721 0.256074 0.256074 0.256074 0.256074 0.256074 0.256074 0.256074 0.256074 0.256074 0.256074 0.256074 0.256074 0.256074 0.256074 0.269680 0.269680 0.269680 0.269680 0.269680 0.269680 0.269680 0.269680 0.269680 0.269680 0.269680 0.269680 0.264906 0.264906 0.264906 0.264906 0.264906 0.264906 0.264906 0.264906 0.264906 0.264906 0.264906 0.264906 0.269680 0.269680 0.269680 0.269680 0.269680 0.269680 0.269680 0.269680 0.269680 0.269680 0.269680 0.264906 0.264906 0.264906 0.264906 0.264906 0.264906 0.264906 0.264906 0.264906 0.264906 0.264906 0.269680 0.269680 0.269680 0.269680 0.269680 0.269680 0.269680 0.269680 0.269680 0.269680 0.264906 0.264906 0.264906 0.264906 0.264906 0.264906 0.264906 0.264906 0.264906 0.264906 0.260378 0.260378 0.260378 0.260378 0.260378 0.260378 0.260378 0.260378 0.260378 0.260378 0.256074 0.256074 0.256074 0.256074 0.256074 0.256074 0.256074 0.256074 0.256074 0.256074 0.260378 0.260378 0.260378 0.260378 0.260378 0.260378 0.260378 0.260378 0.260378 0.256074 0.256074 0.256074 0.256074 0.256074 0.256074 0.256074 0.256074 0.256074 0.251976 0.251976 0.251976 0.251976 0.251976 0.251976 0.251976 0.251976 0.251976 0.251976 0.251976 0.251976 0.251976 0.251976 0.251976 0.251976 0.251976
