# Output from CTFFind version 4.1.9, run on 2019-11-03 20:03:31
# Input file: stack1_bm3d_averaged_1_6.5_0_250_half.mrc ; Number of micrographs: 1
# Pixel size: 3.000 Angstroms ; acceleration voltage: 300.0 keV ; spherical aberration: 0.00 mm ; amplitude contrast: 0.07
# Box size: 512 pixels ; min. res.: 30.0 Angstroms ; max. res.: 5.0 Angstroms ; min. def.: 5000.0 um; max. def. 50000.0 um; num. frames averaged: 1
# 6 lines per micrograph: #1 - spatial frequency (1/Angstroms); #2 - 1D rotational average of spectrum (assuming no astigmatism); #3 - 1D rotational average of spectrum; #4 - CTF fit; #5 - cross-correlation between spectrum and CTF fit; #6 - 2sigma of expected cross correlation of noise
0.000000 0.000651 0.001302 0.001953 0.002604 0.003255 0.003906 0.004557 0.005208 0.005859 0.006510 0.007161 0.007812 0.008464 0.009115 0.009766 0.010417 0.011068 0.011719 0.012370 0.013021 0.013672 0.014323 0.014974 0.015625 0.016276 0.016927 0.017578 0.018229 0.018880 0.019531 0.020182 0.020833 0.021484 0.022135 0.022786 0.023438 0.024089 0.024740 0.025391 0.026042 0.026693 0.027344 0.027995 0.028646 0.029297 0.029948 0.030599 0.031250 0.031901 0.032552 0.033203 0.033854 0.034505 0.035156 0.035807 0.036458 0.037109 0.037760 0.038411 0.039062 0.039714 0.040365 0.041016 0.041667 0.042318 0.042969 0.043620 0.044271 0.044922 0.045573 0.046224 0.046875 0.047526 0.048177 0.048828 0.049479 0.050130 0.050781 0.051432 0.052083 0.052734 0.053385 0.054036 0.054688 0.055339 0.055990 0.056641 0.057292 0.057943 0.058594 0.059245 0.059896 0.060547 0.061198 0.061849 0.062500 0.063151 0.063802 0.064453 0.065104 0.065755 0.066406 0.067057 0.067708 0.068359 0.069010 0.069661 0.070312 0.070964 0.071615 0.072266 0.072917 0.073568 0.074219 0.074870 0.075521 0.076172 0.076823 0.077474 0.078125 0.078776 0.079427 0.080078 0.080729 0.081380 0.082031 0.082682 0.083333 0.083984 0.084635 0.085286 0.085938 0.086589 0.087240 0.087891 0.088542 0.089193 0.089844 0.090495 0.091146 0.091797 0.092448 0.093099 0.093750 0.094401 0.095052 0.095703 0.096354 0.097005 0.097656 0.098307 0.098958 0.099609 0.100260 0.100911 0.101562 0.102214 0.102865 0.103516 0.104167 0.104818 0.105469 0.106120 0.106771 0.107422 0.108073 0.108724 0.109375 0.110026 0.110677 0.111328 0.111979 0.112630 0.113281 0.113932 0.114583 0.115234 0.115885 0.116536 0.117188 0.117839 0.118490 0.119141 0.119792 0.120443 0.121094 0.121745 0.122396 0.123047 0.123698 0.124349 0.125000 0.125651 0.126302 0.126953 0.127604 0.128255 0.128906 0.129557 0.130208 0.130859 0.131510 0.132161 0.132812 0.133464 0.134115 0.134766 0.135417 0.136068 0.136719 0.137370 0.138021 0.138672 0.139323 0.139974 0.140625 0.141276 0.141927 0.142578 0.143229 0.143880 0.144531 0.145182 0.145833 0.146484 0.147135 0.147786 0.148438 0.149089 0.149740 0.150391 0.151042 0.151693 0.152344 0.152995 0.153646 0.154297 0.154948 0.155599 0.156250 0.156901 0.157552 0.158203 0.158854 0.159505 0.160156 0.160807 0.161458 0.162109 0.162760 0.163411 0.164062 0.164714 0.165365 0.166016 0.166667 0.167318 0.167969 0.168620 0.169271 0.169922 0.170573 0.171224 0.171875 0.172526 0.173177 0.173828 0.174479 0.175130 0.175781 0.176432 0.177083 0.177734 0.178385 0.179036 0.179688 0.180339 0.180990 0.181641 0.182292 0.182943 0.183594 0.184245 0.184896 0.185547 0.186198 0.186849 0.187500 0.188151 0.188802 0.189453 0.190104 0.190755 0.191406 0.192057 0.192708 0.193359 0.194010 0.194661 0.195312 0.195964 0.196615 0.197266 0.197917 0.198568 0.199219 0.199870 0.200521 0.201172 0.201823 0.202474 0.203125 0.203776 0.204427 0.205078 0.205729 0.206380 0.207031 0.207682 0.208333 0.208984 0.209635 0.210286 0.210938 0.211589 0.212240 0.212891 0.213542 0.214193 0.214844 0.215495 0.216146 0.216797 0.217448 0.218099 0.218750 0.219401 0.220052 0.220703 0.221354 0.222005 0.222656 0.223307 0.223958 0.224609 0.225260 0.225911 0.226562 0.227214 0.227865 0.228516 0.229167 0.229818 0.230469 0.231120 0.231771 0.232422 0.233073 0.233724 0.234375 0.235026 0.235677
       0.34704        0.34704        0.34704        0.34704        0.34704        0.34704        0.34704        0.34704        0.34704        0.34704        0.34704        0.34704        0.34704        0.34704        0.34704        0.34704        0.34704        0.34704        0.34704        0.34704        0.34704        0.34704        0.34704        0.34704        0.34704        0.34704        0.34704        0.34704        0.34704        0.34704        0.34704        0.34704        0.34704        0.34704        0.34704        0.34704        0.34704        0.34704        0.34704        0.34704        0.34704        0.34704        0.34704        0.34704        0.34704        0.34704        0.34704        0.34704        0.34704        0.34704        0.34704        0.35320        0.50347        0.23357        0.08527        0.00081       -0.26983       -0.11177       -0.16191       -0.22191        0.01068       -0.14320       -0.07783       -0.06177       -0.04589       -0.12654       -0.15990       -0.25952       -0.31823       -0.43236       -0.36652       -0.26697       -0.23120       -0.32943       -0.24682       -0.31220       -0.27971       -0.30446       -0.13965       -0.14988       -0.21232       -0.04244        0.02079       -0.02974        0.07611        0.03317        0.22780        0.24364        0.33821        0.35330        0.39296        0.43122        0.50646        0.56523        0.58023        0.51568        0.48974        0.51178        0.46431        0.52979        0.45334        0.41514        0.41597        0.35161        0.29854        0.30825        0.33643        0.23050        0.19595        0.12709        0.15157        0.16175        0.18557        0.16104        0.22934        0.28154        0.31600        0.29701        0.38309        0.46764        0.39831        0.48852        0.60374        0.56324        0.52609        0.56055        0.59809        0.41863        0.48496        0.39346        0.32295        0.30084        0.28258        0.25456        0.19025        0.18477        0.14882        0.20812        0.26034        0.28995        0.34586        0.30865        0.41220        0.43451        0.46170        0.48224        0.48679        0.51980        0.46336        0.43812        0.41063        0.34246        0.32604        0.31101        0.31999        0.25341        0.24352        0.25916        0.24576        0.27184        0.32839        0.43274        0.45483        0.42351        0.42145        0.47778        0.46739        0.46893        0.46248        0.38118        0.36857        0.40422        0.36646        0.30624        0.29807        0.32462        0.28798        0.30239        0.29966        0.31714        0.36066        0.38220        0.43794        0.45138        0.36684        0.45395        0.42494        0.35973        0.30499        0.35434        0.32981        0.30843        0.32561        0.27924        0.27825        0.32388        0.33949        0.44415        0.41339        0.37337        0.38794        0.42977        0.36355        0.35713        0.33946        0.34382        0.28712        0.28497        0.30048        0.37439        0.38194        0.34085        0.34959        0.39830        0.39507        0.45456        0.40245        0.36178        0.33503        0.33629        0.32705        0.31844        0.34357        0.39090        0.36753        0.37092        0.32990        0.44071        0.36432        0.35006        0.33496        0.38006        0.37559        0.31403        0.31738        0.28417        0.31214        0.33145        0.31475        0.33678        0.33868        0.35880        0.34707        0.33872        0.30495        0.29921        0.28751        0.33522        0.33608        0.34667        0.30509        0.34792        0.34560        0.33806        0.33806        0.30796        0.28647        0.31976        0.32641        0.32541        0.31831        0.30562        0.32107        0.33583        0.33303        0.33672        0.38123        0.34226        0.28053        0.32246        0.32488        0.32662        0.33959        0.28632        0.32681        0.29014        0.31940        0.31463        0.37416        0.32730        0.30989        0.28891        0.28870        0.37223        0.35971        0.32868        0.33003        0.30721        0.31034        0.33661        0.33299        0.28578        0.32051        0.26880        0.26647        0.28806        0.30446        0.31278        0.32508        0.23407        0.28806        0.34250        0.34820        0.34619        0.32945        0.31200        0.30705        0.32318        0.31604        0.25376        0.28617        0.28639        0.33164        0.32819        0.35562        0.35587        0.32763        0.32727        0.33864        0.32838        0.31556        0.32583        0.32815        0.26852        0.29102        0.32826        0.32714        0.24184        0.19646        0.21994        0.29628        0.30963        0.29966        0.27174        0.28417        0.28591        0.24079        0.26245        0.27036        0.24152        0.26697        0.26771        0.25153        0.20828        0.24860        0.32518        0.38485        0.27391        0.24154        0.19933        0.19829        0.29452        0.29672        0.39164        0.24917        0.23006        0.28779        0.36035        0.22808        0.05156       -0.09887       -0.52949       -0.73594
3.343543 3.306318 3.269305 3.232501 3.195909 3.159527 3.123355 3.087395 3.051645 3.016105 2.980776 2.945658 2.910750 2.876053 2.841566 2.807290 2.773225 2.739370 2.705726 2.672292 2.639069 2.606057 2.573255 2.540664 2.508283 2.476113 2.444153 2.412404 2.380866 2.349539 2.318421 2.287515 2.256819 2.226334 2.196059 2.165995 2.136142 2.106499 2.077066 2.047845 2.018834 1.990033 1.961443 1.933064 1.904895 1.876937 1.849189 1.821652 1.794326 1.767210 1.740305 1.649069 1.969229 1.698709 1.172550 1.110978 0.376247 0.907276 0.528808 0.643226 0.924050 0.677050 0.646401 0.760517 0.693672 0.639852 0.475149 0.344040 0.177179 -0.010790 -0.007101 0.094119 0.404663 -0.032012 0.160862 0.041251 0.135372 -0.061457 0.257682 0.184611 0.096901 0.297246 0.488377 0.283963 0.464276 0.376217 0.757321 0.633393 0.855608 0.856116 0.821559 1.039186 0.938561 1.233473 1.127092 1.099110 0.949062 0.998802 0.941041 0.894935 0.934044 0.760910 0.718291 0.647403 0.608676 0.463297 0.553986 0.445463 0.283046 0.196338 0.139522 0.177671 0.224447 0.159958 0.177954 0.346425 0.346675 0.361603 0.457377 0.517204 0.527885 0.397700 0.823111 0.759718 0.664984 0.645353 0.747961 0.518303 0.424992 0.482116 0.193428 0.237644 0.098744 0.166429 -0.022665 -0.032479 -0.105026 -0.102677 0.111960 0.013897 0.126370 0.184906 0.168166 0.314172 0.324738 0.342163 0.345516 0.432358 0.351426 0.270969 0.249557 0.144804 0.105898 0.058433 0.028044 0.006275 -0.070348 -0.080814 -0.068205 -0.075638 -0.053904 0.142025 0.307628 0.190487 0.210420 0.230025 0.412349 0.249369 0.344203 0.284136 0.157621 0.135261 0.286949 0.008841 0.047528 0.037607 0.068331 0.001698 0.091212 -0.010687 0.142031 -0.007912 0.239273 0.309382 0.182753 0.246004 0.216843 0.161532 0.046488 0.082624 0.093813 0.020325 0.006374 0.051324 -0.078971 -0.020801 0.024937 0.125635 0.290659 0.119620 0.130370 0.191020 0.149329 0.116112 0.059249 0.045038 0.057136 -0.076148 -0.013928 0.032977 0.129663 0.111040 0.036260 0.080186 0.182662 0.149914 0.279605 0.106657 0.081949 0.047634 0.021071 0.057140 0.025212 0.087910 0.162214 0.093873 0.082591 0.046017 0.280690 0.059099 0.050243 0.048357 0.119668 0.069870 -0.013090 0.008621 -0.057686 -0.002902 0.038713 0.017217 0.014868 -0.002460 0.049833 0.017221 0.005438 -0.060337 -0.047159 -0.042195 -0.020067 0.043162 -0.009093 -0.005570 0.033677 0.033552 0.006991 0.050144 -0.033647 -0.031433 0.014333 0.015506 0.029676 0.020060 -0.012489 0.002036 0.041115 0.033240 0.056781 0.162427 -0.028858 -0.048919 0.032760 0.017162 0.027668 0.034029 -0.047857 0.036013 -0.050107 0.023470 0.008854 0.114408 -0.008755 -0.036109 -0.053320 -0.023007 0.092172 0.058493 -0.018419 0.021706 -0.023264 -0.008857 0.020192 0.005864 -0.058249 0.025958 -0.110123 -0.083584 -0.045361 -0.033153 -0.051201 -0.033357 -0.207226 -0.001984 0.065168 0.005129 -0.002931 0.030402 -0.049917 -0.033330 -0.044453 -0.047398 -0.118409 -0.100144 -0.104583 -0.004010 0.003713 0.007724 0.020358 -0.031401 0.005385 -0.025343 -0.013703 -0.072153 -0.008495 -0.008860 -0.108621 -0.044268 0.002450 -0.015231 -0.100322 -0.243270 -0.102851 0.092805 0.025202 -0.040564 0.011572 0.028425 -0.077147 0.085183 -0.076605 0.012377 -0.057823 0.033815 -0.003662 0.019862 -0.128588 0.027689 0.266175 0.156265 0.035064 0.043276 -0.144982 -0.018664 0.087798 0.068040 0.294269 0.352400 0.390961 0.494831 0.626534 0.406717 0.006975 -0.157374 -1.231776
0.072396 0.072906 0.074437 0.076988 0.080559 0.085148 0.090755 0.097377 0.105013 0.113659 0.123313 0.133969 0.145622 0.158265 0.171891 0.186489 0.202049 0.218557 0.235996 0.254350 0.273598 0.293714 0.314673 0.336444 0.358991 0.382277 0.406258 0.430886 0.456108 0.481865 0.508095 0.534726 0.561684 0.588885 0.616242 0.643657 0.671030 0.698249 0.725200 0.751758 0.777793 0.803168 0.827737 0.851351 0.873853 0.895080 0.914865 0.933036 0.949416 0.963826 0.976085 0.986012 0.993423 0.998138 0.999980 0.998775 0.994356 0.986564 0.975249 0.960272 0.941511 0.918856 0.892219 0.861530 0.826743 0.787835 0.744814 0.697715 0.646605 0.591587 0.532797 0.470410 0.404640 0.335741 0.264007 0.189776 0.113426 0.035376 0.043913 0.123941 0.204172 0.284033 0.362922 0.440207 0.515233 0.587328 0.655807 0.719979 0.779154 0.832654 0.879815 0.920003 0.952616 0.977102 0.992960 0.999758 0.997135 0.984819 0.962630 0.930491 0.888437 0.836618 0.775312 0.704923 0.625987 0.539174 0.445284 0.345249 0.240123 0.131080 0.019399 0.093544 0.206294 0.317331 0.425093 0.527996 0.624458 0.712924 0.791894 0.859950 0.915787 0.958239 0.986306 0.999187 0.996299 0.977301 0.942117 0.890951 0.824296 0.742942 0.647981 0.540795 0.423051 0.296680 0.163853 0.026951 0.111478 0.248760 0.382141 0.508849 0.626150 0.731410 0.822159 0.896153 0.951438 0.986411 0.999870 0.991066 0.959741 0.906157 0.831118 0.735971 0.622601 0.493404 0.351257 0.199458 0.041659 0.118207 0.276032 0.427626 0.568837 0.695662 0.804370 0.891620 0.954575 0.991005 0.999383 0.978953 0.929794 0.852849 0.749931 0.623706 0.477642 0.315932 0.143390 0.034683 0.212653 0.384728 0.545143 0.688362 0.809278 0.903402 0.967050 0.997505 0.993148 0.953564 0.879600 0.773386 0.638298 0.478883 0.300728 0.110281 0.085364 0.278724 0.462208 0.628425 0.770481 0.882280 0.958815 0.996401 0.992892 0.947816 0.862458 0.739870 0.584791 0.403505 0.203612 0.006278 0.216888 0.418685 0.602309 0.759020 0.881131 0.962402 0.998399 0.986759 0.927380 0.822499 0.676656 0.496539 0.290721 0.069274 0.156697 0.375599 0.575949 0.746980 0.879245 0.965163 0.999491 0.979683 0.906118 0.782162 0.614081 0.410762 0.183293 0.055614 0.292313 0.512993 0.704498 0.855123 0.955362 0.998553 0.981367 0.904108 0.770802 0.589054 0.369669 0.126059 0.126548 0.372028 0.594402 0.778877 0.912865 0.986882 0.995273 0.936700 0.814352 0.635860 0.412874 0.160374 0.104305 0.362623 0.596144 0.787857 0.923449 0.992428 0.988985 0.912565 0.768032 0.565459 0.319494 0.048359 0.227457 0.486720 0.709099 0.876784 0.975956 0.998002 0.940325 0.806719 0.607213 0.357413 0.077344 0.210102 0.481006 0.712425 0.884357 0.981531 0.994830 0.922238 0.769187 0.548259 0.278250 0.017359 0.312399 0.580300 0.796509 0.940780 0.999142 0.965340 0.841605 0.638640 0.374804 0.074550 0.233786 0.520623 0.757985 0.922257 0.996620 0.972869 0.852419 0.646388 0.374693 0.064221 0.253754 0.546689 0.784118 0.940863 0.999786 0.953779 0.806734 0.573375 0.277902 0.048408 0.370439 0.653018 0.864756 0.981624 0.989772 0.887309 0.684764 0.404157 0.076741 0.260414 0.568552 0.811700 0.960944 0.997955 0.917383 0.727758 0.450759 0.118880 0.228283 0.548706 0.803017 0.959406 0.997712 0.912167 0.712408 0.422575 0.078537 0.276423 0.597020 0.841749 0.978337 0.988126 0.868782 0.634922 0.316517 0.044804 0.401099 0.704441 0.913407
1.000000 1.000000 1.000000 1.000000 1.000000 1.000000 1.000000 1.000000 1.000000 1.000000 1.000000 1.000000 1.000000 1.000000 1.000000 1.000000 1.000000 1.000000 1.000000 1.000000 1.000000 1.000000 1.000000 1.000000 1.000000 1.000000 1.000000 1.000000 1.000000 1.000000 1.000000 1.000000 1.000000 1.000000 1.000000 1.000000 1.000000 1.000000 1.000000 1.000000 1.000000 1.000000 1.000000 1.000000 1.000000 1.000000 1.000000 1.000000 1.000000 1.000000 1.000000 1.000000 0.828626 0.828626 0.828626 0.814957 0.814957 0.814957 0.814957 0.814957 0.814957 0.814957 0.814957 0.814957 0.814957 0.814957 0.814957 0.814957 0.814957 0.814957 0.814957 0.814957 0.814957 0.814957 0.814957 0.814957 0.814957 0.814957 0.814957 0.814957 0.814957 0.814957 0.814957 0.814957 0.814957 0.814957 0.814957 0.814957 0.814957 0.814957 0.814957 0.814957 0.814957 0.814957 0.814957 0.814957 0.852526 0.860498 0.865499 0.868348 0.869206 0.866841 0.865514 0.865118 0.864678 0.864915 0.870983 0.895965 0.913096 0.915860 0.927306 0.930884 0.936205 0.939302 0.955396 0.957046 0.958721 0.957828 0.958482 0.960431 0.964678 0.961179 0.962194 0.962277 0.966937 0.963156 0.962485 0.961348 0.960224 0.957332 0.957571 0.957338 0.956439 0.957251 0.951842 0.952149 0.952271 0.950428 0.948521 0.935159 0.930235 0.929373 0.929523 0.910098 0.903321 0.893202 0.877334 0.899907 0.893686 0.873862 0.872982 0.849320 0.851969 0.852033 0.840475 0.837821 0.834939 0.830191 0.820789 0.821708 0.821198 0.829953 0.834857 0.837152 0.827048 0.807013 0.778834 0.763227 0.763108 0.763440 0.761893 0.766116 0.768844 0.768302 0.766214 0.763274 0.751750 0.762318 0.761716 0.757167 0.749193 0.747846 0.735175 0.730517 0.722891 0.699022 0.679782 0.668140 0.669532 0.656440 0.648970 0.649853 0.657288 0.663608 0.670802 0.664351 0.660933 0.642962 0.617146 0.575575 0.590024 0.597932 0.573658 0.563725 0.549145 0.584717 0.606683 0.630026 0.647505 0.648958 0.653033 0.628564 0.593671 0.586271 0.588681 0.588926 0.588835 0.581934 0.589100 0.603425 0.593502 0.543206 0.543881 0.541289 0.553381 0.572496 0.563912 0.562304 0.527758 0.509551 0.489845 0.462642 0.422403 0.413455 0.415594 0.427599 0.411021 0.396009 0.398717 0.421436 0.408458 0.409572 0.394291 0.389544 0.366852 0.367241 0.369752 0.353369 0.335566 0.280554 0.252899 0.243142 0.254405 0.257901 0.302452 0.321181 0.323103 0.297433 0.294644 0.327939 0.341113 0.352757 0.355654 0.327090 0.312733 0.210868 0.208175 0.241493 0.260551 0.260895 0.238805 0.233137 0.238101 0.215431 0.200413 0.144598 0.100817 0.071301 0.096530 0.102402 0.104335 0.089784 0.040650 0.043348 0.038504 0.015760 -0.009441 -0.014247 0.036432 0.047929 0.055168 0.070819 0.054652 0.028607 0.054923 0.043633 0.059667 0.077059 0.051520 0.056978 0.028119 -0.008141 -0.013027 -0.028443 -0.043422 -0.009628 -0.002607 0.015575 -0.010400 0.005242 0.005282 -0.011195 -0.083605 -0.113171 -0.105925 -0.121485 -0.113804 -0.109855 -0.105027 -0.123994 -0.122454 -0.132351 -0.019258 -0.035242 -0.039523 -0.041775 -0.054023 -0.077527 -0.089485 -0.083564 -0.026829 -0.005315 0.005558 -0.028593 -0.051382 -0.051382 -0.051382 -0.068306 -0.068306 -0.068306 -0.068306 -0.068306 -0.068306 -0.068306 -0.068306 -0.068306 -0.076238 -0.076238 -0.076238 -0.076238 -0.076238 -0.076238 -0.076238 -0.076238 -0.076238 -0.076238 -0.076238 -0.076238 -0.076238 -0.076238 -0.076238 -0.076238 -0.076238
0.000000 0.000000 0.000000 0.000000 0.000000 0.000000 0.000000 0.000000 0.000000 0.000000 0.000000 0.000000 0.000000 0.000000 0.000000 0.000000 0.000000 0.000000 0.000000 0.000000 0.000000 0.000000 0.000000 0.000000 0.000000 0.000000 0.000000 0.000000 0.000000 0.000000 0.000000 0.000000 0.000000 0.000000 0.000000 0.000000 0.000000 0.000000 0.000000 0.000000 0.000000 0.000000 0.000000 0.000000 0.000000 0.000000 0.000000 0.000000 0.000000 0.000000 0.000000 0.000000 0.180334 0.180334 0.180334 0.199007 0.199007 0.199007 0.199007 0.199007 0.199007 0.199007 0.199007 0.199007 0.199007 0.199007 0.199007 0.199007 0.199007 0.199007 0.199007 0.199007 0.199007 0.199007 0.199007 0.199007 0.199007 0.199007 0.199007 0.199007 0.199007 0.199007 0.199007 0.199007 0.199007 0.199007 0.199007 0.199007 0.199007 0.199007 0.199007 0.199007 0.199007 0.199007 0.199007 0.199007 0.230940 0.230940 0.230940 0.230940 0.230940 0.230940 0.230940 0.230940 0.230940 0.230940 0.230940 0.230940 0.230940 0.230940 0.230940 0.230940 0.230940 0.230940 0.230940 0.230940 0.230940 0.230940 0.230940 0.230940 0.230940 0.230940 0.230940 0.230940 0.244339 0.244339 0.244339 0.244339 0.244339 0.244339 0.244339 0.244339 0.244339 0.244339 0.244339 0.244339 0.244339 0.244339 0.244339 0.244339 0.244339 0.244339 0.244339 0.244339 0.244339 0.244339 0.244339 0.256074 0.256074 0.256074 0.256074 0.256074 0.256074 0.256074 0.256074 0.256074 0.256074 0.256074 0.256074 0.256074 0.256074 0.256074 0.256074 0.256074 0.256074 0.256074 0.256074 0.256074 0.256074 0.256074 0.256074 0.256074 0.256074 0.256074 0.256074 0.256074 0.256074 0.256074 0.256074 0.256074 0.256074 0.256074 0.256074 0.256074 0.264906 0.264906 0.264906 0.264906 0.264906 0.264906 0.264906 0.264906 0.264906 0.264906 0.264906 0.264906 0.264906 0.264906 0.264906 0.264906 0.264906 0.264906 0.264906 0.264906 0.264906 0.264906 0.264906 0.264906 0.264906 0.264906 0.264906 0.264906 0.264906 0.264906 0.264906 0.264906 0.264906 0.264906 0.264906 0.264906 0.264906 0.264906 0.264906 0.264906 0.264906 0.264906 0.264906 0.264906 0.264906 0.264906 0.264906 0.264906 0.264906 0.264906 0.264906 0.264906 0.264906 0.264906 0.264906 0.264906 0.264906 0.264906 0.269680 0.269680 0.269680 0.269680 0.269680 0.269680 0.269680 0.269680 0.269680 0.269680 0.269680 0.269680 0.264906 0.264906 0.264906 0.264906 0.264906 0.264906 0.264906 0.264906 0.264906 0.264906 0.264906 0.264906 0.269680 0.269680 0.269680 0.269680 0.269680 0.269680 0.269680 0.269680 0.269680 0.269680 0.269680 0.264906 0.264906 0.264906 0.264906 0.264906 0.264906 0.264906 0.264906 0.264906 0.264906 0.264906 0.256074 0.256074 0.256074 0.256074 0.256074 0.256074 0.256074 0.256074 0.256074 0.256074 0.256074 0.264906 0.264906 0.264906 0.264906 0.264906 0.264906 0.264906 0.264906 0.264906 0.264906 0.260378 0.260378 0.260378 0.260378 0.260378 0.260378 0.260378 0.260378 0.260378 0.260378 0.264906 0.264906 0.264906 0.264906 0.264906 0.264906 0.264906 0.264906 0.264906 0.260378 0.260378 0.260378 0.260378 0.260378 0.260378 0.260378 0.260378 0.260378 0.256074 0.256074 0.256074 0.256074 0.256074 0.256074 0.256074 0.256074 0.256074 0.251976 0.251976 0.251976 0.251976 0.251976 0.251976 0.251976 0.251976 0.251976 0.251976 0.251976 0.251976 0.251976 0.251976 0.251976 0.251976 0.251976
