# Output from CTFFind version 4.1.9, run on 2019-11-03 20:10:06
# Input file: stack16_bm3d_averaged_1_6.5_0_2500_half.mrc ; Number of micrographs: 1
# Pixel size: 3.000 Angstroms ; acceleration voltage: 300.0 keV ; spherical aberration: 0.00 mm ; amplitude contrast: 0.07
# Box size: 512 pixels ; min. res.: 30.0 Angstroms ; max. res.: 5.0 Angstroms ; min. def.: 5000.0 um; max. def. 50000.0 um; num. frames averaged: 1
# 6 lines per micrograph: #1 - spatial frequency (1/Angstroms); #2 - 1D rotational average of spectrum (assuming no astigmatism); #3 - 1D rotational average of spectrum; #4 - CTF fit; #5 - cross-correlation between spectrum and CTF fit; #6 - 2sigma of expected cross correlation of noise
0.000000 0.000651 0.001302 0.001953 0.002604 0.003255 0.003906 0.004557 0.005208 0.005859 0.006510 0.007161 0.007812 0.008464 0.009115 0.009766 0.010417 0.011068 0.011719 0.012370 0.013021 0.013672 0.014323 0.014974 0.015625 0.016276 0.016927 0.017578 0.018229 0.018880 0.019531 0.020182 0.020833 0.021484 0.022135 0.022786 0.023438 0.024089 0.024740 0.025391 0.026042 0.026693 0.027344 0.027995 0.028646 0.029297 0.029948 0.030599 0.031250 0.031901 0.032552 0.033203 0.033854 0.034505 0.035156 0.035807 0.036458 0.037109 0.037760 0.038411 0.039062 0.039714 0.040365 0.041016 0.041667 0.042318 0.042969 0.043620 0.044271 0.044922 0.045573 0.046224 0.046875 0.047526 0.048177 0.048828 0.049479 0.050130 0.050781 0.051432 0.052083 0.052734 0.053385 0.054036 0.054688 0.055339 0.055990 0.056641 0.057292 0.057943 0.058594 0.059245 0.059896 0.060547 0.061198 0.061849 0.062500 0.063151 0.063802 0.064453 0.065104 0.065755 0.066406 0.067057 0.067708 0.068359 0.069010 0.069661 0.070312 0.070964 0.071615 0.072266 0.072917 0.073568 0.074219 0.074870 0.075521 0.076172 0.076823 0.077474 0.078125 0.078776 0.079427 0.080078 0.080729 0.081380 0.082031 0.082682 0.083333 0.083984 0.084635 0.085286 0.085938 0.086589 0.087240 0.087891 0.088542 0.089193 0.089844 0.090495 0.091146 0.091797 0.092448 0.093099 0.093750 0.094401 0.095052 0.095703 0.096354 0.097005 0.097656 0.098307 0.098958 0.099609 0.100260 0.100911 0.101562 0.102214 0.102865 0.103516 0.104167 0.104818 0.105469 0.106120 0.106771 0.107422 0.108073 0.108724 0.109375 0.110026 0.110677 0.111328 0.111979 0.112630 0.113281 0.113932 0.114583 0.115234 0.115885 0.116536 0.117188 0.117839 0.118490 0.119141 0.119792 0.120443 0.121094 0.121745 0.122396 0.123047 0.123698 0.124349 0.125000 0.125651 0.126302 0.126953 0.127604 0.128255 0.128906 0.129557 0.130208 0.130859 0.131510 0.132161 0.132812 0.133464 0.134115 0.134766 0.135417 0.136068 0.136719 0.137370 0.138021 0.138672 0.139323 0.139974 0.140625 0.141276 0.141927 0.142578 0.143229 0.143880 0.144531 0.145182 0.145833 0.146484 0.147135 0.147786 0.148438 0.149089 0.149740 0.150391 0.151042 0.151693 0.152344 0.152995 0.153646 0.154297 0.154948 0.155599 0.156250 0.156901 0.157552 0.158203 0.158854 0.159505 0.160156 0.160807 0.161458 0.162109 0.162760 0.163411 0.164062 0.164714 0.165365 0.166016 0.166667 0.167318 0.167969 0.168620 0.169271 0.169922 0.170573 0.171224 0.171875 0.172526 0.173177 0.173828 0.174479 0.175130 0.175781 0.176432 0.177083 0.177734 0.178385 0.179036 0.179688 0.180339 0.180990 0.181641 0.182292 0.182943 0.183594 0.184245 0.184896 0.185547 0.186198 0.186849 0.187500 0.188151 0.188802 0.189453 0.190104 0.190755 0.191406 0.192057 0.192708 0.193359 0.194010 0.194661 0.195312 0.195964 0.196615 0.197266 0.197917 0.198568 0.199219 0.199870 0.200521 0.201172 0.201823 0.202474 0.203125 0.203776 0.204427 0.205078 0.205729 0.206380 0.207031 0.207682 0.208333 0.208984 0.209635 0.210286 0.210938 0.211589 0.212240 0.212891 0.213542 0.214193 0.214844 0.215495 0.216146 0.216797 0.217448 0.218099 0.218750 0.219401 0.220052 0.220703 0.221354 0.222005 0.222656 0.223307 0.223958 0.224609 0.225260 0.225911 0.226562 0.227214 0.227865 0.228516 0.229167 0.229818 0.230469 0.231120 0.231771 0.232422 0.233073 0.233724 0.234375 0.235026 0.235677
       0.35028        0.35028        0.35028        0.35028        0.35028        0.35028        0.35028        0.35028        0.35028        0.35028        0.35028        0.35028        0.35028        0.35028        0.35028        0.35028        0.35028        0.35028        0.35028        0.35028        0.35028        0.35028        0.35028        0.35028        0.35028        0.35028        0.35028        0.35028        0.35028        0.35028        0.35028        0.35028        0.35028        0.35028        0.35028        0.35028        0.35028        0.35028        0.35028        0.35028        0.35028        0.35028        0.35028        0.35028        0.35028        0.35028        0.35028        0.35028        0.35028        0.35028        0.35028        0.42904        0.55646        0.34271       -0.21574       -0.45152       -0.54355       -0.64521       -0.71415       -0.72060       -0.81415       -0.88841       -0.67974       -0.83461       -0.81827       -0.96045       -0.99938       -0.88063       -0.83951       -0.79735       -0.70949       -0.64035       -0.55114       -0.45767       -0.39326       -0.16511       -0.06277        0.03984        0.26130        0.25928        0.31685        0.37209        0.40363        0.52320        0.53875        0.57421        0.53331        0.47404        0.50622        0.52925        0.45260        0.33291        0.21717        0.18370        0.11337        0.01368       -0.00220       -0.01144        0.06011        0.02671        0.07829        0.05122        0.16777        0.19820        0.40958        0.46022        0.54909        0.65764        0.68619        0.71320        0.63848        0.61169        0.54328        0.44201        0.38989        0.28018        0.22095        0.21691        0.10503        0.11552        0.11558        0.08995        0.09896        0.30705        0.41804        0.52520        0.53407        0.56941        0.60731        0.58738        0.57246        0.58393        0.56784        0.46838        0.30893        0.26799        0.25835        0.15476        0.09505        0.17270        0.21237        0.28851        0.35505        0.42775        0.47409        0.53166        0.60236        0.54672        0.50628        0.50441        0.35662        0.28028        0.26343        0.17896        0.20314        0.24031        0.27897        0.28545        0.33013        0.43054        0.46463        0.49947        0.45322        0.44287        0.48814        0.39657        0.33070        0.28947        0.26303        0.23620        0.23017        0.24095        0.33975        0.44766        0.43453        0.48925        0.55418        0.45058        0.41410        0.35732        0.31824        0.27444        0.28438        0.27266        0.29131        0.35435        0.36187        0.43949        0.47342        0.44138        0.46343        0.37905        0.38022        0.35519        0.27432        0.25565        0.25333        0.33542        0.38124        0.36611        0.39108        0.43404        0.44363        0.38112        0.34010        0.32372        0.35423        0.31761        0.28526        0.28901        0.35867        0.37563        0.39364        0.38946        0.39285        0.42157        0.40778        0.32611        0.29164        0.31633        0.34361        0.38237        0.36237        0.40478        0.34600        0.37192        0.39402        0.34100        0.35630        0.32291        0.30321        0.33928        0.34624        0.33133        0.35936        0.37626        0.33050        0.34987        0.32342        0.31883        0.29980        0.32287        0.32259        0.32920        0.36808        0.37524        0.35835        0.31136        0.30302        0.28866        0.33261        0.31557        0.31718        0.37296        0.35939        0.34290        0.31813        0.30768        0.31002        0.27913        0.31974        0.33386        0.34432        0.37295        0.35398        0.31614        0.33880        0.35334        0.33568        0.35730        0.34865        0.31580        0.33502        0.29403        0.32252        0.29986        0.31662        0.28824        0.32200        0.35184        0.33006        0.35660        0.31556        0.33389        0.35533        0.34332        0.31993        0.32602        0.36602        0.34634        0.34453        0.33073        0.31347        0.31951        0.31759        0.32696        0.32446        0.36030        0.33633        0.33703        0.29552        0.29004        0.27040        0.27482        0.36463        0.31401        0.34114        0.29824        0.26470        0.27754        0.36534        0.31072        0.28559        0.31862        0.31863        0.29667        0.26305        0.30504        0.27152        0.29757        0.30866        0.34073        0.33645        0.32202        0.31446        0.26785        0.28038        0.27558        0.27920        0.29804        0.36220        0.29906        0.20387        0.30533        0.29381        0.33027        0.25914        0.29757        0.29389        0.33437        0.28985        0.27661        0.26889        0.24801        0.30861        0.34115        0.33502        0.25282        0.30594        0.25727        0.23863        0.21881        0.33004        0.25574        0.16632        0.11712        0.20464        0.34078        0.24422        0.19048        0.12478       -0.44441       -0.54473
3.213721 3.172907 3.132358 3.092074 3.052055 3.012301 2.972812 2.933588 2.894629 2.855935 2.817506 2.779342 2.741442 2.703808 2.666439 2.629335 2.592496 2.555922 2.519613 2.483569 2.447789 2.412275 2.377026 2.342041 2.307322 2.272868 2.238679 2.204754 2.171095 2.137701 2.104571 2.071707 2.039107 2.006773 1.974704 1.942899 1.911360 1.880085 1.849076 1.818331 1.787852 1.757637 1.727688 1.698003 1.668583 1.639429 1.610539 1.581915 1.553555 1.525460 1.497631 1.533020 1.607627 1.548031 0.845153 0.598389 0.459601 0.390014 0.293698 0.219808 0.187312 -0.049296 0.208910 0.074247 -0.029552 -0.108239 -0.238343 -0.144107 -0.053788 -0.093900 -0.073438 0.036987 0.035720 0.230255 0.108402 0.357373 0.464105 0.495417 0.771870 0.685362 0.696780 0.825440 0.797462 0.843309 0.919470 0.858764 0.889038 0.726212 0.788195 0.846273 0.689165 0.605567 0.435169 0.427564 0.333239 0.190483 0.186461 0.114238 0.208478 0.119685 0.208037 0.104501 0.215588 0.228171 0.439346 0.401816 0.572009 0.610227 0.635252 0.719498 0.605658 0.577277 0.459013 0.410255 0.287804 0.261384 0.092090 0.151992 -0.029612 0.035913 -0.031488 -0.044062 -0.058309 0.025714 0.264059 0.291276 0.357797 0.298190 0.381634 0.391432 0.414397 0.395559 0.355439 0.327177 0.120765 0.073389 0.061834 -0.021988 -0.153860 -0.053536 -0.066459 0.035148 0.075770 0.148943 0.213446 0.223007 0.315615 0.404230 0.284638 0.360993 0.229812 0.140690 0.064836 0.035053 0.000608 0.050276 0.069457 0.094715 0.117276 0.171435 0.238296 0.303264 0.271045 0.210092 0.252507 0.226107 0.109270 0.059455 0.052878 0.025894 0.006057 -0.021560 0.029759 0.167919 0.192204 0.190199 0.297689 0.187093 0.195267 0.072716 0.065567 0.010283 -0.007480 -0.002406 -0.010396 0.043917 0.069113 0.097864 0.156834 0.140434 0.221763 0.135527 0.077170 0.098752 0.042610 -0.051510 -0.021093 0.025939 0.065591 0.073112 0.066474 0.151396 0.120259 0.151184 0.036680 0.048788 0.045209 0.047144 0.027101 -0.020956 0.040367 0.048527 0.090878 0.102157 0.085785 0.112201 0.124766 0.079949 0.012454 -0.008352 0.024013 0.075913 0.071597 0.090093 0.088690 0.049620 0.104845 0.066213 0.041780 0.078151 -0.014399 0.012949 0.065158 0.039274 0.042775 0.066961 0.077684 0.049509 0.065833 0.015674 0.019723 0.006494 0.054237 0.010464 0.041574 0.068705 0.078741 0.043191 -0.005429 -0.003251 -0.019310 0.041859 0.000568 0.012725 0.071896 0.050108 0.001125 0.010943 -0.016326 0.006774 -0.040678 0.006816 0.013989 0.042037 0.045741 0.027191 -0.007397 0.004671 0.030930 0.006904 0.037336 0.011909 -0.016848 0.031219 -0.049698 -0.028029 -0.055294 -0.012507 -0.063904 0.006646 0.020125 -0.011043 -0.009609 -0.005399 -0.001092 0.027436 0.015897 -0.012729 0.007129 0.026857 0.040285 0.022363 0.007871 0.015837 0.004287 -0.004495 0.016959 -0.006639 0.087535 0.043733 0.029552 0.001798 -0.009622 -0.032136 0.002063 0.075431 0.001698 0.058324 -0.019109 -0.024746 -0.022917 0.094708 0.003149 -0.024423 0.055055 0.050835 0.007229 0.002888 0.020181 0.003339 0.037027 0.031303 0.090284 0.055633 0.049205 0.043151 -0.008467 0.015498 -0.005562 -0.007764 0.012156 0.095414 -0.014548 -0.090597 0.043928 0.001851 0.051770 -0.047561 -0.005674 0.000552 0.021918 -0.000465 -0.024260 -0.021611 -0.069779 0.043892 0.046168 0.055195 -0.122769 0.018500 0.007341 -0.006716 -0.099962 0.101993 0.022531 -0.047661 -0.109270 0.186765 0.294014 0.181098 0.136120 0.127258 -0.522341
0.072396 0.073047 0.074998 0.078250 0.082801 0.088650 0.095794 0.104231 0.113956 0.124965 0.137251 0.150806 0.165618 0.181677 0.198966 0.217467 0.237157 0.258011 0.279998 0.303083 0.327224 0.352374 0.378480 0.405482 0.433310 0.461888 0.491131 0.520945 0.551225 0.581858 0.612717 0.643669 0.674565 0.705247 0.735547 0.765282 0.794261 0.822279 0.849124 0.874570 0.898384 0.920325 0.940142 0.957582 0.972384 0.984287 0.993028 0.998348 0.999990 0.997706 0.991259 0.980424 0.964994 0.944783 0.919631 0.889406 0.854009 0.813379 0.767497 0.716389 0.660131 0.598855 0.532746 0.462054 0.387089 0.308229 0.225917 0.140666 0.053054 0.036273 0.126605 0.217170 0.307141 0.395641 0.481748 0.564506 0.642937 0.716046 0.782843 0.842349 0.893615 0.935740 0.967883 0.989287 0.999294 0.997362 0.983084 0.956209 0.916650 0.864506 0.800070 0.723841 0.636529 0.539060 0.432576 0.318428 0.198168 0.073536 0.053563 0.181079 0.306852 0.428641 0.544168 0.651159 0.747393 0.830749 0.899262 0.951172 0.984978 0.999488 0.993864 0.967667 0.920890 0.853986 0.767886 0.664009 0.544250 0.410970 0.266960 0.115393 0.040229 0.196154 0.348465 0.493177 0.626338 0.744148 0.843075 0.919968 0.972171 0.997631 0.994995 0.963681 0.903949 0.816929 0.704638 0.569959 0.416592 0.248978 0.072191 0.108210 0.286339 0.456173 0.611756 0.747422 0.858005 0.939057 0.987049 0.999550 0.975367 0.914657 0.818981 0.691311 0.535979 0.358562 0.165715 0.035058 0.235680 0.427817 0.603225 0.754115 0.873515 0.955619 0.996098 0.992369 0.943780 0.851737 0.719717 0.553192 0.359455 0.147333 0.073181 0.291377 0.496352 0.677546 0.825313 0.931456 0.989728 0.996236 0.949755 0.851896 0.707132 0.522659 0.308101 0.075051 0.163521 0.393966 0.602740 0.777213 0.906459 0.981991 0.998368 0.953653 0.849657 0.691969 0.489737 0.255203 0.003024 0.250613 0.489012 0.696066 0.857379 0.961308 0.999868 0.969419 0.871073 0.710781 0.499072 0.250450 0.017543 0.285507 0.533585 0.742929 0.897180 0.983800 0.995175 0.929370 0.790472 0.588458 0.338590 0.060343 0.224045 0.491325 0.719137 0.887926 0.982674 0.994340 0.920820 0.767353 0.546289 0.276205 0.019544 0.314793 0.582851 0.798943 0.942535 0.999396 0.963109 0.835920 0.628778 0.360547 0.056389 0.254487 0.541615 0.776257 0.934323 0.998966 0.962486 0.827396 0.606449 0.321596 0.001936 0.319163 0.607521 0.831792 0.966960 0.997246 0.918101 0.737021 0.473040 0.154893 0.181982 0.499334 0.760422 0.934339 0.999787 0.947845 0.783361 0.524731 0.202037 0.146297 0.478016 0.752115 0.933998 0.999951 0.940425 0.761607 0.485025 0.145178 0.214631 0.547707 0.810048 0.966225 0.994326 0.889244 0.663774 0.347326 0.017721 0.381545 0.693630 0.909829 0.998737 0.946464 0.759036 0.462009 0.097228 0.282885 0.622777 0.871905 0.992369 0.964888 0.792143 0.498881 0.128635 0.262514 0.614338 0.871756 0.993567 0.959283 0.772843 0.462548 0.077039 0.322091 0.670066 0.909450 0.999803 0.924756 0.695286 0.348470 0.058221 0.456221 0.777410 0.965832 0.987663 0.837584 0.540334 0.146982 0.273572 0.646533 0.904524 0.999928 0.913967 0.660745 0.285340 0.143892 0.547565 0.849910 0.993127 0.948712 0.723501 0.359084 0.075528 0.496699 0.822212 0.987432 0.958417 0.739279 0.372114 0.070675 0.500397 0.829760 0.990741 0.948904 0.711205 0.325334 0.129422 0.558216 0.870390 0.998763 0.914460 0.633831 0.215814 0.250076 0.662646
1.000000 1.000000 1.000000 1.000000 1.000000 1.000000 1.000000 1.000000 1.000000 1.000000 1.000000 1.000000 1.000000 1.000000 1.000000 1.000000 1.000000 1.000000 1.000000 1.000000 1.000000 1.000000 1.000000 1.000000 1.000000 1.000000 1.000000 1.000000 1.000000 1.000000 1.000000 1.000000 1.000000 1.000000 1.000000 1.000000 1.000000 1.000000 1.000000 1.000000 1.000000 1.000000 1.000000 1.000000 1.000000 1.000000 1.000000 1.000000 1.000000 1.000000 1.000000 1.000000 0.923292 0.923292 0.923292 0.923292 0.923292 0.923292 0.923292 0.923292 0.923292 0.923292 0.923292 0.923292 0.923292 0.923292 0.923292 0.923292 0.923292 0.923292 0.923292 0.923292 0.923292 0.923292 0.923292 0.923292 0.923292 0.923292 0.923292 0.923292 0.923292 0.923292 0.923292 0.923292 0.923292 0.913335 0.911425 0.912589 0.911150 0.909680 0.909092 0.908702 0.909743 0.911350 0.913422 0.935046 0.938154 0.939396 0.940716 0.942084 0.944362 0.942209 0.949809 0.956320 0.955272 0.956421 0.950293 0.951683 0.951042 0.950313 0.951652 0.951766 0.950084 0.948077 0.946512 0.945968 0.945659 0.949307 0.949795 0.949960 0.950552 0.950501 0.951219 0.951833 0.950009 0.952286 0.944453 0.943109 0.948372 0.946303 0.947685 0.947650 0.948338 0.949148 0.949466 0.949736 0.946383 0.945947 0.945038 0.937620 0.930529 0.930593 0.932868 0.935839 0.933130 0.930043 0.931349 0.933455 0.932582 0.936056 0.927107 0.922980 0.897057 0.883842 0.874203 0.874452 0.878273 0.880839 0.878519 0.872088 0.863190 0.859622 0.859268 0.855464 0.847466 0.862998 0.857378 0.854457 0.858146 0.861383 0.866783 0.864612 0.860387 0.855626 0.850817 0.841235 0.842689 0.846714 0.850847 0.834053 0.823886 0.840654 0.831494 0.821983 0.829574 0.831464 0.828572 0.827468 0.827939 0.825444 0.818799 0.811411 0.815079 0.824072 0.824968 0.815263 0.812823 0.810393 0.810177 0.802558 0.807092 0.808228 0.804536 0.797121 0.814491 0.781264 0.802453 0.803305 0.786734 0.770922 0.758617 0.767554 0.777608 0.777457 0.771409 0.775559 0.775072 0.767269 0.740449 0.734954 0.741762 0.739860 0.728066 0.714328 0.721428 0.722249 0.718744 0.715537 0.718716 0.718771 0.695119 0.708399 0.712748 0.702818 0.716923 0.719663 0.710645 0.713734 0.717373 0.720308 0.720608 0.689160 0.692820 0.653083 0.642457 0.596409 0.593026 0.590638 0.532333 0.536622 0.508468 0.491354 0.492141 0.473876 0.525515 0.440872 0.427743 0.457092 0.382667 0.332412 0.349573 0.350085 0.363819 0.369789 0.356764 0.358573 0.343819 0.323176 0.310353 0.334883 0.351513 0.320446 0.324741 0.309487 0.286408 0.247105 0.263908 0.267998 0.295959 0.297264 0.276535 0.300536 0.352148 0.290429 0.270496 0.248275 0.274455 0.285457 0.283967 0.274076 0.279424 0.233597 0.226935 0.247547 0.250094 0.281928 0.308965 0.335945 0.331270 0.333489 0.363087 0.314923 0.331925 0.336773 0.325259 0.340576 0.343959 0.344376 0.338325 0.375787 0.363993 0.374828 0.367803 0.360288 0.402181 0.380262 0.353954 0.330661 0.339024 0.336771 0.331080 0.274487 0.258967 0.255853 0.210915 0.174710 0.176460 0.176588 0.132254 0.116127 0.099072 0.062055 0.061471 0.069702 0.098347 0.069417 0.086984 0.093656 0.093656 0.093656 0.093656 0.093656 0.093656 0.093656 0.093656 0.093656 0.093656 0.093656 0.093656 0.093656 0.093656 0.116323 0.116323 0.116323 0.116323 0.116323 0.116323 0.116323 0.116323 0.116323 0.116323 0.116323 0.116323
0.000000 0.000000 0.000000 0.000000 0.000000 0.000000 0.000000 0.000000 0.000000 0.000000 0.000000 0.000000 0.000000 0.000000 0.000000 0.000000 0.000000 0.000000 0.000000 0.000000 0.000000 0.000000 0.000000 0.000000 0.000000 0.000000 0.000000 0.000000 0.000000 0.000000 0.000000 0.000000 0.000000 0.000000 0.000000 0.000000 0.000000 0.000000 0.000000 0.000000 0.000000 0.000000 0.000000 0.000000 0.000000 0.000000 0.000000 0.000000 0.000000 0.000000 0.000000 0.000000 0.209657 0.209657 0.209657 0.209657 0.209657 0.209657 0.209657 0.209657 0.209657 0.209657 0.209657 0.209657 0.209657 0.209657 0.209657 0.209657 0.209657 0.209657 0.209657 0.209657 0.209657 0.209657 0.209657 0.209657 0.209657 0.209657 0.209657 0.209657 0.209657 0.209657 0.209657 0.209657 0.209657 0.244339 0.244339 0.244339 0.244339 0.244339 0.244339 0.244339 0.244339 0.244339 0.244339 0.244339 0.244339 0.244339 0.244339 0.244339 0.244339 0.244339 0.244339 0.244339 0.244339 0.244339 0.244339 0.244339 0.244339 0.244339 0.260378 0.260378 0.260378 0.260378 0.260378 0.260378 0.260378 0.260378 0.260378 0.260378 0.260378 0.260378 0.260378 0.260378 0.260378 0.260378 0.260378 0.260378 0.260378 0.260378 0.269680 0.269680 0.269680 0.269680 0.269680 0.269680 0.269680 0.269680 0.269680 0.269680 0.269680 0.269680 0.269680 0.269680 0.269680 0.269680 0.269680 0.269680 0.269680 0.269680 0.269680 0.269680 0.269680 0.269680 0.269680 0.269680 0.269680 0.269680 0.269680 0.269680 0.269680 0.269680 0.269680 0.280056 0.280056 0.280056 0.280056 0.280056 0.280056 0.280056 0.280056 0.280056 0.280056 0.280056 0.280056 0.280056 0.280056 0.280056 0.280056 0.280056 0.280056 0.280056 0.280056 0.280056 0.280056 0.280056 0.280056 0.280056 0.280056 0.280056 0.274721 0.274721 0.274721 0.274721 0.274721 0.274721 0.274721 0.274721 0.274721 0.274721 0.274721 0.274721 0.274721 0.285714 0.285714 0.285714 0.285714 0.285714 0.285714 0.285714 0.285714 0.285714 0.285714 0.285714 0.280056 0.280056 0.280056 0.280056 0.280056 0.280056 0.280056 0.280056 0.280056 0.280056 0.280056 0.274721 0.274721 0.274721 0.274721 0.274721 0.274721 0.274721 0.274721 0.274721 0.274721 0.274721 0.280056 0.280056 0.280056 0.280056 0.280056 0.280056 0.280056 0.280056 0.280056 0.280056 0.285714 0.285714 0.285714 0.285714 0.285714 0.285714 0.285714 0.285714 0.285714 0.269680 0.269680 0.269680 0.269680 0.269680 0.269680 0.269680 0.269680 0.269680 0.269680 0.274721 0.274721 0.274721 0.274721 0.274721 0.274721 0.274721 0.274721 0.274721 0.285714 0.285714 0.285714 0.285714 0.285714 0.285714 0.285714 0.285714 0.264906 0.264906 0.264906 0.264906 0.264906 0.264906 0.264906 0.264906 0.264906 0.274721 0.274721 0.274721 0.274721 0.274721 0.274721 0.274721 0.274721 0.269680 0.269680 0.269680 0.269680 0.269680 0.269680 0.269680 0.269680 0.269680 0.269680 0.269680 0.269680 0.269680 0.269680 0.269680 0.269680 0.280056 0.280056 0.280056 0.280056 0.280056 0.280056 0.280056 0.260378 0.260378 0.260378 0.260378 0.260378 0.260378 0.260378 0.260378 0.269680 0.269680 0.269680 0.269680 0.269680 0.269680 0.269680 0.264906 0.264906 0.264906 0.264906 0.264906 0.264906 0.264906 0.264906 0.264906 0.264906 0.264906 0.264906 0.264906 0.264906 0.260378 0.260378 0.260378 0.260378 0.260378 0.260378 0.260378 0.260378 0.260378 0.260378 0.260378 0.260378
