# Output from CTFFind version 4.1.9, run on 2019-11-03 19:44:40
# Input file: stack16_bm3d_averaged_1_5.25_0_50_half.mrc ; Number of micrographs: 1
# Pixel size: 3.000 Angstroms ; acceleration voltage: 300.0 keV ; spherical aberration: 0.00 mm ; amplitude contrast: 0.07
# Box size: 512 pixels ; min. res.: 30.0 Angstroms ; max. res.: 5.0 Angstroms ; min. def.: 5000.0 um; max. def. 50000.0 um; num. frames averaged: 1
# 6 lines per micrograph: #1 - spatial frequency (1/Angstroms); #2 - 1D rotational average of spectrum (assuming no astigmatism); #3 - 1D rotational average of spectrum; #4 - CTF fit; #5 - cross-correlation between spectrum and CTF fit; #6 - 2sigma of expected cross correlation of noise
0.000000 0.000651 0.001302 0.001953 0.002604 0.003255 0.003906 0.004557 0.005208 0.005859 0.006510 0.007161 0.007812 0.008464 0.009115 0.009766 0.010417 0.011068 0.011719 0.012370 0.013021 0.013672 0.014323 0.014974 0.015625 0.016276 0.016927 0.017578 0.018229 0.018880 0.019531 0.020182 0.020833 0.021484 0.022135 0.022786 0.023438 0.024089 0.024740 0.025391 0.026042 0.026693 0.027344 0.027995 0.028646 0.029297 0.029948 0.030599 0.031250 0.031901 0.032552 0.033203 0.033854 0.034505 0.035156 0.035807 0.036458 0.037109 0.037760 0.038411 0.039062 0.039714 0.040365 0.041016 0.041667 0.042318 0.042969 0.043620 0.044271 0.044922 0.045573 0.046224 0.046875 0.047526 0.048177 0.048828 0.049479 0.050130 0.050781 0.051432 0.052083 0.052734 0.053385 0.054036 0.054688 0.055339 0.055990 0.056641 0.057292 0.057943 0.058594 0.059245 0.059896 0.060547 0.061198 0.061849 0.062500 0.063151 0.063802 0.064453 0.065104 0.065755 0.066406 0.067057 0.067708 0.068359 0.069010 0.069661 0.070312 0.070964 0.071615 0.072266 0.072917 0.073568 0.074219 0.074870 0.075521 0.076172 0.076823 0.077474 0.078125 0.078776 0.079427 0.080078 0.080729 0.081380 0.082031 0.082682 0.083333 0.083984 0.084635 0.085286 0.085938 0.086589 0.087240 0.087891 0.088542 0.089193 0.089844 0.090495 0.091146 0.091797 0.092448 0.093099 0.093750 0.094401 0.095052 0.095703 0.096354 0.097005 0.097656 0.098307 0.098958 0.099609 0.100260 0.100911 0.101562 0.102214 0.102865 0.103516 0.104167 0.104818 0.105469 0.106120 0.106771 0.107422 0.108073 0.108724 0.109375 0.110026 0.110677 0.111328 0.111979 0.112630 0.113281 0.113932 0.114583 0.115234 0.115885 0.116536 0.117188 0.117839 0.118490 0.119141 0.119792 0.120443 0.121094 0.121745 0.122396 0.123047 0.123698 0.124349 0.125000 0.125651 0.126302 0.126953 0.127604 0.128255 0.128906 0.129557 0.130208 0.130859 0.131510 0.132161 0.132812 0.133464 0.134115 0.134766 0.135417 0.136068 0.136719 0.137370 0.138021 0.138672 0.139323 0.139974 0.140625 0.141276 0.141927 0.142578 0.143229 0.143880 0.144531 0.145182 0.145833 0.146484 0.147135 0.147786 0.148438 0.149089 0.149740 0.150391 0.151042 0.151693 0.152344 0.152995 0.153646 0.154297 0.154948 0.155599 0.156250 0.156901 0.157552 0.158203 0.158854 0.159505 0.160156 0.160807 0.161458 0.162109 0.162760 0.163411 0.164062 0.164714 0.165365 0.166016 0.166667 0.167318 0.167969 0.168620 0.169271 0.169922 0.170573 0.171224 0.171875 0.172526 0.173177 0.173828 0.174479 0.175130 0.175781 0.176432 0.177083 0.177734 0.178385 0.179036 0.179688 0.180339 0.180990 0.181641 0.182292 0.182943 0.183594 0.184245 0.184896 0.185547 0.186198 0.186849 0.187500 0.188151 0.188802 0.189453 0.190104 0.190755 0.191406 0.192057 0.192708 0.193359 0.194010 0.194661 0.195312 0.195964 0.196615 0.197266 0.197917 0.198568 0.199219 0.199870 0.200521 0.201172 0.201823 0.202474 0.203125 0.203776 0.204427 0.205078 0.205729 0.206380 0.207031 0.207682 0.208333 0.208984 0.209635 0.210286 0.210938 0.211589 0.212240 0.212891 0.213542 0.214193 0.214844 0.215495 0.216146 0.216797 0.217448 0.218099 0.218750 0.219401 0.220052 0.220703 0.221354 0.222005 0.222656 0.223307 0.223958 0.224609 0.225260 0.225911 0.226562 0.227214 0.227865 0.228516 0.229167 0.229818 0.230469 0.231120 0.231771 0.232422 0.233073 0.233724 0.234375 0.235026 0.235677
       0.34416        0.34416        0.34416        0.34416        0.34416        0.34416        0.34416        0.34416        0.34416        0.34416        0.34416        0.34416        0.34416        0.34416        0.34416        0.34416        0.34416        0.34416        0.34416        0.34416        0.34416        0.34416        0.34416        0.34416        0.34416        0.34416        0.34416        0.34416        0.34416        0.34416        0.34416        0.34416        0.34416        0.34416        0.34416        0.34416        0.34416        0.34416        0.34416        0.34416        0.34416        0.34416        0.34416        0.34416        0.34416        0.34416        0.34416        0.34416        0.34416        0.34416        0.34416        0.42545        0.55770        0.34395       -0.21128       -0.45410       -0.54859       -0.64878       -0.71865       -0.72879       -0.82549       -0.89615       -0.68931       -0.84556       -0.82694       -0.97183       -1.00926       -0.89127       -0.85031       -0.80439       -0.72097       -0.65134       -0.56251       -0.46847       -0.40233       -0.17337       -0.07082        0.02900        0.25276        0.25361        0.31066        0.36986        0.39942        0.51484        0.53673        0.57258        0.53188        0.47285        0.50647        0.52107        0.44367        0.32871        0.20952        0.17731        0.10784        0.00272       -0.01339       -0.02252        0.05079        0.01554        0.07007        0.04357        0.15939        0.19324        0.40497        0.45775        0.54919        0.65703        0.68727        0.71346        0.63565        0.61135        0.53699        0.43821        0.38528        0.27205        0.21387        0.20827        0.09626        0.10356        0.09818        0.08087        0.09284        0.30347        0.41289        0.51904        0.53283        0.57087        0.60765        0.58708        0.57430        0.58336        0.56566        0.46583        0.30152        0.26091        0.24808        0.14363        0.08685        0.16145        0.19835        0.28083        0.35041        0.42185        0.47100        0.52942        0.59996        0.54563        0.50554        0.49836        0.35418        0.26790        0.25336        0.17215        0.18668        0.22753        0.26892        0.27777        0.32110        0.42437        0.45644        0.49770        0.45128        0.44294        0.48247        0.38923        0.32702        0.28367        0.25507        0.22863        0.22575        0.23609        0.33438        0.44033        0.42777        0.48865        0.55296        0.44419        0.40909        0.35472        0.31022        0.26455        0.27720        0.26862        0.28649        0.34218        0.35203        0.43126        0.47040        0.43565        0.45682        0.37051        0.37640        0.35307        0.26620        0.24582        0.24345        0.32287        0.37477        0.36505        0.38753        0.43183        0.43727        0.37203        0.33650        0.31902        0.34843        0.30955        0.27727        0.28023        0.34966        0.36862        0.38472        0.38894        0.38546        0.41443        0.39922        0.31677        0.28501        0.31282        0.34179        0.37146        0.35922        0.40338        0.34053        0.36962        0.39076        0.33409        0.35321        0.31721        0.29778        0.33593        0.33768        0.32474        0.34894        0.36867        0.32476        0.34327        0.31561        0.31333        0.29040        0.31666        0.31292        0.32523        0.36433        0.36810        0.35040        0.30461        0.29469        0.28463        0.32766        0.30795        0.31257        0.36598        0.35733        0.33936        0.31047        0.30243        0.30913        0.27270        0.30890        0.32150        0.33167        0.36620        0.34496        0.30407        0.33248        0.33805        0.32337        0.35525        0.34333        0.30995        0.33140        0.29080        0.32003        0.29241        0.30989        0.28699        0.31952        0.35504        0.33093        0.35265        0.30851        0.32491        0.34706        0.33602        0.30994        0.31310        0.35144        0.33500        0.33064        0.32121        0.31114        0.30841        0.31133        0.32161        0.32078        0.35003        0.33695        0.33480        0.28859        0.28057        0.26566        0.26882        0.36193        0.31030        0.34898        0.29595        0.26139        0.27725        0.36172        0.30536        0.28149        0.30207        0.31478        0.29269        0.26517        0.30583        0.26852        0.28324        0.30133        0.32798        0.33230        0.32009        0.30358        0.26670        0.26854        0.26129        0.26966        0.29344        0.35883        0.28991        0.19760        0.30279        0.28319        0.32159        0.24642        0.30006        0.30212        0.33240        0.28777        0.27535        0.26578        0.23783        0.29503        0.34209        0.34489        0.24481        0.29059        0.22952        0.22464        0.21205        0.33530        0.25043        0.18706        0.12699        0.21416        0.31664        0.22412        0.18485        0.10275       -0.50382       -0.63218
3.166838 3.126797 3.087016 3.047494 3.008232 2.969229 2.930485 2.892001 2.853776 2.815810 2.778104 2.740658 2.703470 2.666542 2.629874 2.593464 2.557315 2.521424 2.485793 2.450421 2.415309 2.380456 2.345863 2.311529 2.277454 2.243638 2.210082 2.176786 2.143749 2.110971 2.078452 2.046193 2.014194 1.982453 1.950972 1.919751 1.888789 1.858086 1.827642 1.797458 1.767534 1.737869 1.708463 1.679316 1.650429 1.621801 1.593433 1.565324 1.537475 1.509884 1.482554 1.518163 1.600379 1.540444 0.847062 0.593860 0.454202 0.385473 0.290524 0.213539 0.178261 -0.052944 0.201918 0.067302 -0.034166 -0.114280 -0.240665 -0.148427 -0.060287 -0.094217 -0.078503 0.033131 0.030057 0.224600 0.105062 0.354479 0.461178 0.488107 0.765762 0.685392 0.691516 0.827503 0.798234 0.838380 0.919656 0.860808 0.890770 0.728631 0.795196 0.845454 0.684118 0.605997 0.437618 0.426339 0.339820 0.187976 0.185132 0.115143 0.209881 0.118577 0.210968 0.105675 0.219056 0.231885 0.445751 0.406351 0.579346 0.618422 0.647928 0.724625 0.612153 0.588579 0.463181 0.414638 0.294787 0.265496 0.097604 0.157946 -0.026154 0.036956 -0.032980 -0.041881 -0.049886 0.031181 0.274775 0.295947 0.367445 0.309810 0.392141 0.402282 0.427650 0.409536 0.362039 0.338451 0.129299 0.080145 0.064785 -0.015364 -0.152438 -0.046485 -0.066465 0.040568 0.082648 0.156279 0.224015 0.231796 0.322190 0.414559 0.295687 0.366305 0.241752 0.141399 0.065847 0.041537 0.002074 0.047519 0.071104 0.100280 0.117285 0.178438 0.241360 0.305972 0.279587 0.219916 0.256930 0.229298 0.111165 0.070093 0.050106 0.030887 0.006821 -0.012787 0.034595 0.171419 0.191547 0.193244 0.305825 0.189624 0.199212 0.078088 0.071206 0.003864 -0.006084 0.002047 -0.006077 0.043772 0.063227 0.097208 0.158085 0.142758 0.222432 0.132767 0.078676 0.101471 0.046966 -0.056221 -0.024478 0.021855 0.061751 0.074501 0.071815 0.154346 0.122264 0.152688 0.036920 0.053429 0.048334 0.048841 0.026418 -0.021230 0.040315 0.046383 0.089796 0.106340 0.091167 0.110138 0.126398 0.078375 0.012639 -0.005542 0.029749 0.080128 0.067373 0.097524 0.093767 0.050284 0.110087 0.067103 0.042684 0.082373 -0.017675 0.019311 0.061712 0.037643 0.042753 0.059446 0.074738 0.049124 0.062211 0.012540 0.020372 0.000145 0.050492 0.005396 0.043022 0.067983 0.074828 0.040319 -0.009232 -0.006196 -0.018396 0.038168 -0.000048 0.012344 0.069255 0.055184 -0.003867 0.008369 -0.013710 0.009427 -0.043030 -0.000298 0.005684 0.034252 0.047591 0.022517 -0.013051 0.006778 0.016634 0.003567 0.043119 0.012543 -0.014404 0.032804 -0.044302 -0.021596 -0.050838 -0.013505 -0.051600 0.013626 0.033200 -0.001630 -0.003214 -0.003153 0.004794 0.027199 0.021758 -0.012154 0.003694 0.026184 0.039468 0.019216 0.009834 0.029170 -0.002212 0.001082 0.020647 -0.000667 0.083181 0.051052 0.031539 0.001082 -0.010130 -0.033252 0.003064 0.079865 0.000113 0.070530 -0.017287 -0.023982 -0.020436 0.097193 -0.001629 -0.017367 0.039881 0.047321 0.009107 0.006907 0.026205 0.002991 0.024855 0.028232 0.079293 0.066939 0.051028 0.037742 -0.000960 0.004540 -0.009362 -0.010217 0.009234 0.105525 -0.021651 -0.094235 0.055572 -0.005285 0.058246 -0.060337 0.005443 0.012554 0.023268 0.000379 -0.019511 -0.020536 -0.074267 0.029689 0.049952 0.062648 -0.124918 0.009618 -0.022290 -0.014133 -0.110693 0.110512 0.018625 -0.015951 -0.090369 0.196146 0.266291 0.160224 0.136212 0.105834 -0.602520
0.072396 0.073047 0.074998 0.078250 0.082801 0.088649 0.095793 0.104230 0.113955 0.124964 0.137250 0.150804 0.165617 0.181675 0.198963 0.217464 0.237154 0.258007 0.279994 0.303078 0.327219 0.352369 0.378474 0.405475 0.433303 0.461881 0.491124 0.520937 0.551217 0.581849 0.612708 0.643659 0.674555 0.705237 0.735536 0.765272 0.794250 0.822269 0.849114 0.874560 0.898375 0.920316 0.940135 0.957575 0.972378 0.984282 0.993025 0.998346 0.999990 0.997708 0.991263 0.980430 0.965003 0.944795 0.919646 0.889424 0.854030 0.813404 0.767525 0.716420 0.660167 0.598893 0.532788 0.462099 0.387138 0.308281 0.225972 0.140723 0.053113 0.036212 0.126542 0.217106 0.307077 0.395577 0.481685 0.564446 0.642879 0.715993 0.782794 0.842306 0.893578 0.935710 0.967861 0.989274 0.999291 0.997369 0.983102 0.956238 0.916690 0.864558 0.800133 0.723915 0.636614 0.539155 0.432679 0.318539 0.198285 0.073658 0.053438 0.180954 0.306728 0.428522 0.544055 0.651055 0.747299 0.830669 0.899198 0.951126 0.984952 0.999483 0.993881 0.967707 0.920953 0.854072 0.767994 0.664137 0.544396 0.411132 0.267134 0.115576 0.040042 0.195968 0.348285 0.493006 0.626182 0.744013 0.842965 0.919886 0.972121 0.997617 0.995017 0.963741 0.904046 0.817062 0.704803 0.570153 0.416809 0.249214 0.072437 0.107961 0.286095 0.455943 0.611549 0.747246 0.857867 0.938963 0.987005 0.999558 0.975430 0.914773 0.819148 0.691525 0.536231 0.358845 0.166018 0.034747 0.235374 0.427528 0.602967 0.753900 0.873353 0.955520 0.996068 0.992411 0.943895 0.851923 0.719964 0.553492 0.359796 0.147699 0.072806 0.291014 0.496020 0.677261 0.825091 0.931312 0.989670 0.996271 0.949884 0.852114 0.707430 0.523022 0.308512 0.075485 0.163086 0.393558 0.602382 0.776927 0.906266 0.981903 0.998395 0.953795 0.849908 0.692319 0.490163 0.255681 0.003524 0.250126 0.488568 0.695698 0.857112 0.961164 0.999860 0.969550 0.871338 0.711164 0.499550 0.250987 0.016982 0.284964 0.533101 0.742543 0.896922 0.983695 0.995233 0.929592 0.790842 0.588952 0.339169 0.060964 0.223433 0.490773 0.718695 0.887629 0.982554 0.994409 0.921079 0.767784 0.546852 0.276858 0.018858 0.314134 0.582284 0.798519 0.942298 0.999371 0.963303 0.836320 0.629351 0.361237 0.057136 0.253756 0.540977 0.775773 0.934047 0.998930 0.962699 0.827842 0.607083 0.322358 0.002745 0.318389 0.606867 0.831330 0.966746 0.997308 0.918438 0.737601 0.473803 0.155756 0.181123 0.498570 0.759845 0.934019 0.999768 0.948134 0.783930 0.525519 0.202953 0.145369 0.477184 0.751488 0.933654 0.999941 0.940756 0.762242 0.485889 0.146163 0.213651 0.546861 0.809453 0.965960 0.994435 0.889718 0.664559 0.348317 0.016661 0.380557 0.692855 0.909378 0.998681 0.946818 0.759756 0.462996 0.098344 0.281802 0.621887 0.871344 0.992226 0.965192 0.792858 0.499899 0.129808 0.261361 0.613392 0.871164 0.993428 0.959627 0.773625 0.463643 0.078282 0.320902 0.669128 0.908921 0.999776 0.925246 0.696218 0.349692 0.056911 0.455046 0.776574 0.965485 0.987872 0.838321 0.541476 0.148333 0.272244 0.645473 0.903928 0.999910 0.914539 0.661809 0.286707 0.142472 0.546351 0.849141 0.992954 0.949177 0.724527 0.360472 0.074037 0.495387 0.821347 0.987190 0.958855 0.740316 0.373551 0.069114 0.499035 0.828877 0.990524 0.949409 0.712331 0.326863 0.127811 0.556861 0.869582 0.998680 0.915132 0.635123 0.217452 0.248435 0.661371
1.000000 1.000000 1.000000 1.000000 1.000000 1.000000 1.000000 1.000000 1.000000 1.000000 1.000000 1.000000 1.000000 1.000000 1.000000 1.000000 1.000000 1.000000 1.000000 1.000000 1.000000 1.000000 1.000000 1.000000 1.000000 1.000000 1.000000 1.000000 1.000000 1.000000 1.000000 1.000000 1.000000 1.000000 1.000000 1.000000 1.000000 1.000000 1.000000 1.000000 1.000000 1.000000 1.000000 1.000000 1.000000 1.000000 1.000000 1.000000 1.000000 1.000000 1.000000 1.000000 0.926225 0.926225 0.926225 0.926225 0.926225 0.926225 0.926225 0.926225 0.926225 0.926225 0.926225 0.926225 0.926225 0.926225 0.926225 0.926225 0.926225 0.926225 0.926225 0.926225 0.926225 0.926225 0.926225 0.926225 0.926225 0.926225 0.926225 0.926225 0.926225 0.926225 0.926225 0.926225 0.926225 0.913310 0.911404 0.912566 0.913754 0.913661 0.913106 0.912740 0.913774 0.915324 0.917340 0.938959 0.941990 0.943156 0.944450 0.945875 0.948310 0.946291 0.954008 0.960632 0.959649 0.960658 0.954471 0.955782 0.955149 0.954420 0.955995 0.956067 0.954446 0.952536 0.951050 0.950545 0.950252 0.953777 0.954322 0.954490 0.955040 0.954972 0.955691 0.956296 0.954387 0.956570 0.948690 0.947489 0.952888 0.951000 0.952542 0.952505 0.953202 0.953977 0.954263 0.954507 0.951508 0.951143 0.950379 0.941844 0.935174 0.934567 0.936835 0.939932 0.937250 0.933848 0.935251 0.937648 0.936941 0.936237 0.926220 0.921959 0.897263 0.884952 0.873994 0.874363 0.877776 0.880250 0.877885 0.870593 0.861196 0.857305 0.857340 0.853260 0.845759 0.861760 0.856180 0.854349 0.858248 0.861351 0.866806 0.864222 0.859835 0.855149 0.850603 0.842757 0.844568 0.848726 0.852814 0.836209 0.826923 0.843853 0.834192 0.824873 0.832470 0.834436 0.831296 0.830154 0.830833 0.829039 0.822503 0.816082 0.819510 0.828580 0.827991 0.816640 0.813713 0.809945 0.809699 0.801829 0.805923 0.806489 0.802710 0.795953 0.812734 0.778271 0.801346 0.800880 0.786220 0.769670 0.757137 0.765973 0.776948 0.778694 0.773011 0.771313 0.770705 0.763046 0.736214 0.735109 0.742388 0.740644 0.727914 0.710161 0.717583 0.720866 0.716756 0.712125 0.715025 0.716719 0.690675 0.704120 0.708247 0.694937 0.709495 0.711865 0.702494 0.704625 0.707517 0.710035 0.704303 0.663053 0.666116 0.655203 0.650386 0.600097 0.599815 0.597098 0.539646 0.543823 0.510614 0.493086 0.493068 0.482955 0.535874 0.478143 0.467632 0.499574 0.426694 0.359657 0.375182 0.374878 0.388177 0.396315 0.378805 0.379368 0.364974 0.345069 0.351565 0.374656 0.390012 0.356062 0.358760 0.348811 0.323555 0.293268 0.309913 0.313466 0.337438 0.338682 0.316339 0.342563 0.385756 0.326951 0.303904 0.283936 0.302022 0.315568 0.320604 0.308741 0.292970 0.273502 0.251979 0.276808 0.275881 0.285221 0.303245 0.334228 0.328448 0.330481 0.357313 0.307143 0.325415 0.328717 0.318045 0.326910 0.330338 0.330578 0.321625 0.343833 0.323075 0.332573 0.318259 0.311612 0.365147 0.344970 0.317599 0.308130 0.315460 0.318694 0.293284 0.239629 0.226275 0.227433 0.165510 0.135603 0.136818 0.136963 0.093176 0.071396 0.053957 0.014961 0.014662 0.020002 0.053917 0.022798 0.044909 0.052031 0.052031 0.052031 0.052031 0.052031 0.052031 0.052031 0.052031 0.052031 0.052031 0.052031 0.052031 0.052031 0.052031 0.075154 0.075154 0.075154 0.075154 0.075154 0.075154 0.075154 0.075154 0.075154 0.075154 0.075154 0.075154
0.000000 0.000000 0.000000 0.000000 0.000000 0.000000 0.000000 0.000000 0.000000 0.000000 0.000000 0.000000 0.000000 0.000000 0.000000 0.000000 0.000000 0.000000 0.000000 0.000000 0.000000 0.000000 0.000000 0.000000 0.000000 0.000000 0.000000 0.000000 0.000000 0.000000 0.000000 0.000000 0.000000 0.000000 0.000000 0.000000 0.000000 0.000000 0.000000 0.000000 0.000000 0.000000 0.000000 0.000000 0.000000 0.000000 0.000000 0.000000 0.000000 0.000000 0.000000 0.000000 0.209657 0.209657 0.209657 0.209657 0.209657 0.209657 0.209657 0.209657 0.209657 0.209657 0.209657 0.209657 0.209657 0.209657 0.209657 0.209657 0.209657 0.209657 0.209657 0.209657 0.209657 0.209657 0.209657 0.209657 0.209657 0.209657 0.209657 0.209657 0.209657 0.209657 0.209657 0.209657 0.209657 0.244339 0.244339 0.244339 0.244339 0.244339 0.244339 0.244339 0.244339 0.244339 0.244339 0.244339 0.244339 0.244339 0.244339 0.244339 0.244339 0.244339 0.244339 0.244339 0.244339 0.244339 0.244339 0.244339 0.244339 0.244339 0.260378 0.260378 0.260378 0.260378 0.260378 0.260378 0.260378 0.260378 0.260378 0.260378 0.260378 0.260378 0.260378 0.260378 0.260378 0.260378 0.260378 0.260378 0.260378 0.260378 0.269680 0.269680 0.269680 0.269680 0.269680 0.269680 0.269680 0.269680 0.269680 0.269680 0.269680 0.269680 0.269680 0.269680 0.269680 0.269680 0.269680 0.269680 0.269680 0.269680 0.269680 0.269680 0.269680 0.269680 0.269680 0.269680 0.269680 0.269680 0.269680 0.269680 0.269680 0.269680 0.269680 0.280056 0.280056 0.280056 0.280056 0.280056 0.280056 0.280056 0.280056 0.280056 0.280056 0.280056 0.280056 0.280056 0.280056 0.280056 0.280056 0.280056 0.280056 0.280056 0.280056 0.280056 0.280056 0.280056 0.280056 0.280056 0.280056 0.280056 0.274721 0.274721 0.274721 0.274721 0.274721 0.274721 0.274721 0.274721 0.274721 0.274721 0.274721 0.274721 0.274721 0.285714 0.285714 0.285714 0.285714 0.285714 0.285714 0.285714 0.285714 0.285714 0.285714 0.285714 0.280056 0.280056 0.280056 0.280056 0.280056 0.280056 0.280056 0.280056 0.280056 0.280056 0.280056 0.274721 0.274721 0.274721 0.274721 0.274721 0.274721 0.274721 0.274721 0.274721 0.274721 0.274721 0.280056 0.280056 0.280056 0.280056 0.280056 0.280056 0.280056 0.280056 0.280056 0.280056 0.285714 0.285714 0.285714 0.285714 0.285714 0.285714 0.285714 0.285714 0.285714 0.269680 0.269680 0.269680 0.269680 0.269680 0.269680 0.269680 0.269680 0.269680 0.269680 0.274721 0.274721 0.274721 0.274721 0.274721 0.274721 0.274721 0.274721 0.274721 0.285714 0.285714 0.285714 0.285714 0.285714 0.285714 0.285714 0.285714 0.264906 0.264906 0.264906 0.264906 0.264906 0.264906 0.264906 0.264906 0.264906 0.274721 0.274721 0.274721 0.274721 0.274721 0.274721 0.274721 0.274721 0.269680 0.269680 0.269680 0.269680 0.269680 0.269680 0.269680 0.269680 0.269680 0.269680 0.269680 0.269680 0.269680 0.269680 0.269680 0.269680 0.280056 0.280056 0.280056 0.280056 0.280056 0.280056 0.280056 0.260378 0.260378 0.260378 0.260378 0.260378 0.260378 0.260378 0.260378 0.269680 0.269680 0.269680 0.269680 0.269680 0.269680 0.269680 0.264906 0.264906 0.264906 0.264906 0.264906 0.264906 0.264906 0.264906 0.264906 0.264906 0.264906 0.264906 0.264906 0.264906 0.260378 0.260378 0.260378 0.260378 0.260378 0.260378 0.260378 0.260378 0.260378 0.260378 0.260378 0.260378
