# Output from CTFFind version 4.1.9, run on 2019-11-03 20:04:45
# Input file: stack1_bm3d_averaged_1_7.5_0_750_half.mrc ; Number of micrographs: 1
# Pixel size: 3.000 Angstroms ; acceleration voltage: 300.0 keV ; spherical aberration: 0.00 mm ; amplitude contrast: 0.07
# Box size: 512 pixels ; min. res.: 30.0 Angstroms ; max. res.: 5.0 Angstroms ; min. def.: 5000.0 um; max. def. 50000.0 um; num. frames averaged: 1
# 6 lines per micrograph: #1 - spatial frequency (1/Angstroms); #2 - 1D rotational average of spectrum (assuming no astigmatism); #3 - 1D rotational average of spectrum; #4 - CTF fit; #5 - cross-correlation between spectrum and CTF fit; #6 - 2sigma of expected cross correlation of noise
0.000000 0.000651 0.001302 0.001953 0.002604 0.003255 0.003906 0.004557 0.005208 0.005859 0.006510 0.007161 0.007812 0.008464 0.009115 0.009766 0.010417 0.011068 0.011719 0.012370 0.013021 0.013672 0.014323 0.014974 0.015625 0.016276 0.016927 0.017578 0.018229 0.018880 0.019531 0.020182 0.020833 0.021484 0.022135 0.022786 0.023438 0.024089 0.024740 0.025391 0.026042 0.026693 0.027344 0.027995 0.028646 0.029297 0.029948 0.030599 0.031250 0.031901 0.032552 0.033203 0.033854 0.034505 0.035156 0.035807 0.036458 0.037109 0.037760 0.038411 0.039062 0.039714 0.040365 0.041016 0.041667 0.042318 0.042969 0.043620 0.044271 0.044922 0.045573 0.046224 0.046875 0.047526 0.048177 0.048828 0.049479 0.050130 0.050781 0.051432 0.052083 0.052734 0.053385 0.054036 0.054688 0.055339 0.055990 0.056641 0.057292 0.057943 0.058594 0.059245 0.059896 0.060547 0.061198 0.061849 0.062500 0.063151 0.063802 0.064453 0.065104 0.065755 0.066406 0.067057 0.067708 0.068359 0.069010 0.069661 0.070312 0.070964 0.071615 0.072266 0.072917 0.073568 0.074219 0.074870 0.075521 0.076172 0.076823 0.077474 0.078125 0.078776 0.079427 0.080078 0.080729 0.081380 0.082031 0.082682 0.083333 0.083984 0.084635 0.085286 0.085938 0.086589 0.087240 0.087891 0.088542 0.089193 0.089844 0.090495 0.091146 0.091797 0.092448 0.093099 0.093750 0.094401 0.095052 0.095703 0.096354 0.097005 0.097656 0.098307 0.098958 0.099609 0.100260 0.100911 0.101562 0.102214 0.102865 0.103516 0.104167 0.104818 0.105469 0.106120 0.106771 0.107422 0.108073 0.108724 0.109375 0.110026 0.110677 0.111328 0.111979 0.112630 0.113281 0.113932 0.114583 0.115234 0.115885 0.116536 0.117188 0.117839 0.118490 0.119141 0.119792 0.120443 0.121094 0.121745 0.122396 0.123047 0.123698 0.124349 0.125000 0.125651 0.126302 0.126953 0.127604 0.128255 0.128906 0.129557 0.130208 0.130859 0.131510 0.132161 0.132812 0.133464 0.134115 0.134766 0.135417 0.136068 0.136719 0.137370 0.138021 0.138672 0.139323 0.139974 0.140625 0.141276 0.141927 0.142578 0.143229 0.143880 0.144531 0.145182 0.145833 0.146484 0.147135 0.147786 0.148438 0.149089 0.149740 0.150391 0.151042 0.151693 0.152344 0.152995 0.153646 0.154297 0.154948 0.155599 0.156250 0.156901 0.157552 0.158203 0.158854 0.159505 0.160156 0.160807 0.161458 0.162109 0.162760 0.163411 0.164062 0.164714 0.165365 0.166016 0.166667 0.167318 0.167969 0.168620 0.169271 0.169922 0.170573 0.171224 0.171875 0.172526 0.173177 0.173828 0.174479 0.175130 0.175781 0.176432 0.177083 0.177734 0.178385 0.179036 0.179688 0.180339 0.180990 0.181641 0.182292 0.182943 0.183594 0.184245 0.184896 0.185547 0.186198 0.186849 0.187500 0.188151 0.188802 0.189453 0.190104 0.190755 0.191406 0.192057 0.192708 0.193359 0.194010 0.194661 0.195312 0.195964 0.196615 0.197266 0.197917 0.198568 0.199219 0.199870 0.200521 0.201172 0.201823 0.202474 0.203125 0.203776 0.204427 0.205078 0.205729 0.206380 0.207031 0.207682 0.208333 0.208984 0.209635 0.210286 0.210938 0.211589 0.212240 0.212891 0.213542 0.214193 0.214844 0.215495 0.216146 0.216797 0.217448 0.218099 0.218750 0.219401 0.220052 0.220703 0.221354 0.222005 0.222656 0.223307 0.223958 0.224609 0.225260 0.225911 0.226562 0.227214 0.227865 0.228516 0.229167 0.229818 0.230469 0.231120 0.231771 0.232422 0.233073 0.233724 0.234375 0.235026 0.235677
       0.33873        0.33873        0.33873        0.33873        0.33873        0.33873        0.33873        0.33873        0.33873        0.33873        0.33873        0.33873        0.33873        0.33873        0.33873        0.33873        0.33873        0.33873        0.33873        0.33873        0.33873        0.33873        0.33873        0.33873        0.33873        0.33873        0.33873        0.33873        0.33873        0.33873        0.33873        0.33873        0.33873        0.33873        0.33873        0.33873        0.33873        0.33873        0.33873        0.33873        0.33873        0.33873        0.33873        0.33873        0.33873        0.33873        0.33873        0.33873        0.33873        0.33873        0.33873        0.32596        0.45885        0.21395        0.06662       -0.00040       -0.27173       -0.12013       -0.15313       -0.22401        0.00168       -0.14881       -0.06072       -0.06495       -0.04918       -0.12276       -0.16754       -0.24627       -0.28965       -0.40092       -0.33358       -0.23613       -0.21674       -0.31255       -0.23160       -0.28397       -0.25519       -0.27723       -0.12401       -0.14010       -0.19648       -0.03241        0.03591       -0.02116        0.06314        0.03824        0.23720        0.24472        0.33042        0.34569        0.36715        0.40336        0.47993        0.53685        0.54146        0.49486        0.48255        0.50735        0.46504        0.50411        0.42774        0.40509        0.41005        0.35369        0.29273        0.30513        0.32557        0.21481        0.19608        0.12970        0.15489        0.16090        0.17143        0.16088        0.23850        0.29931        0.31087        0.28256        0.39214        0.46836        0.39328        0.48244        0.58211        0.53085        0.50912        0.56454        0.59179        0.41473        0.47359        0.40033        0.32962        0.30557        0.28033        0.24973        0.19428        0.18413        0.15447        0.19787        0.24999        0.27942        0.33365        0.30078        0.40146        0.40683        0.44889        0.49186        0.46979        0.49428        0.43826        0.42702        0.40153        0.33454        0.30593        0.31151        0.31330        0.24657        0.24515        0.24899        0.24471        0.26916        0.31667        0.42145        0.46767        0.41287        0.42520        0.45882        0.43630        0.46171        0.45149        0.38405        0.35674        0.38819        0.35534        0.30879        0.29865        0.30578        0.27142        0.29407        0.30124        0.31769        0.36934        0.37094        0.40491        0.41199        0.35460        0.44206        0.40772        0.34368        0.30634        0.33733        0.32555        0.29300        0.30947        0.29052        0.29747        0.32199        0.32809        0.42679        0.39706        0.37442        0.39560        0.43311        0.36725        0.34630        0.33841        0.34743        0.27298        0.26924        0.30337        0.37927        0.37966        0.33678        0.34628        0.39239        0.38355        0.44974        0.37708        0.36520        0.33051        0.31158        0.31156        0.31276        0.33977        0.37415        0.36481        0.37136        0.32388        0.42986        0.34534        0.34984        0.33864        0.37660        0.36299        0.28857        0.30565        0.26343        0.31224        0.32256        0.31440        0.33595        0.31809        0.34600        0.33459        0.33739        0.31598        0.29627        0.27346        0.31589        0.33980        0.31641        0.29166        0.33324        0.32283        0.32925        0.33265        0.29794        0.28418        0.29536        0.32091        0.31216        0.31003        0.28397        0.30067        0.34766        0.32476        0.31476        0.38498        0.32388        0.26899        0.31115        0.32583        0.31168        0.34035        0.29984        0.32299        0.26790        0.31608        0.33689        0.35728        0.29984        0.31448        0.30757        0.28931        0.35759        0.35259        0.30836        0.30388        0.29260        0.28577        0.34058        0.33937        0.27923        0.32513        0.28558        0.26715        0.25536        0.29994        0.33336        0.32078        0.23828        0.27336        0.33911        0.30403        0.32233        0.33557        0.30490        0.31624        0.32291        0.30239        0.27951        0.27376        0.28390        0.32901        0.32724        0.30409        0.32272        0.35196        0.33511        0.28742        0.30387        0.29353        0.30304        0.29017        0.23700        0.25515        0.31348        0.35262        0.24798        0.21520        0.18248        0.28871        0.29542        0.28418        0.30654        0.28139        0.27420        0.24315        0.28464        0.26664        0.30971        0.23403        0.25527        0.25683        0.21689        0.25302        0.32412        0.32046        0.26574        0.22082        0.22096        0.15535        0.23777        0.24465        0.37722        0.28332        0.21837        0.30566        0.36066        0.14666       -0.07998       -0.13919       -0.62236       -0.78696
3.464639 3.425844 3.387269 3.348915 3.310782 3.272869 3.235177 3.197706 3.160455 3.123425 3.086615 3.050027 3.013659 2.977511 2.941584 2.905878 2.870392 2.835128 2.800083 2.765260 2.730657 2.696274 2.662112 2.628171 2.594451 2.560951 2.527672 2.494614 2.461776 2.429159 2.396762 2.364586 2.332631 2.300897 2.269383 2.238089 2.207017 2.176165 2.145533 2.115123 2.084933 2.054963 2.025215 1.995686 1.966379 1.937292 1.908426 1.879781 1.851356 1.823151 1.795168 1.677198 1.977717 1.721539 1.085915 1.159871 0.350521 0.898555 0.535689 0.641359 0.924416 0.660117 0.688265 0.755540 0.691922 0.653221 0.441104 0.342968 0.198709 0.002246 0.006148 0.138732 0.403714 -0.033410 0.162397 0.042562 0.173166 -0.059601 0.265189 0.175241 0.102042 0.305055 0.516061 0.303996 0.440841 0.362308 0.811095 0.658910 0.864094 0.904995 0.802431 1.031689 0.934858 1.256454 1.064607 1.109658 1.016826 1.033866 0.985953 0.901928 0.937701 0.770681 0.745854 0.672055 0.639826 0.461153 0.569704 0.439801 0.269188 0.210638 0.139215 0.178027 0.205582 0.143590 0.197150 0.399286 0.353864 0.365130 0.469218 0.564925 0.550025 0.430371 0.824471 0.776881 0.648680 0.689534 0.781117 0.564435 0.410408 0.525546 0.210316 0.270285 0.106677 0.150008 -0.009616 -0.041680 -0.108362 -0.101854 0.088283 -0.020242 0.120637 0.200300 0.155404 0.301302 0.300182 0.375342 0.455560 0.389874 0.326266 0.257257 0.243340 0.155913 0.066577 0.048134 0.026672 -0.003265 -0.049481 -0.118804 -0.117648 -0.046421 -0.075214 0.138848 0.326754 0.228766 0.192901 0.276617 0.348654 0.230512 0.354309 0.288253 0.155310 0.141807 0.258868 0.013926 0.048326 0.014647 0.052184 -0.025693 0.089455 0.006125 0.156941 0.013160 0.214482 0.244860 0.166718 0.275048 0.188590 0.153413 0.044677 0.076884 0.072594 0.034107 -0.015033 0.033011 -0.033241 0.011344 0.030651 0.112935 0.276974 0.144634 0.155986 0.276111 0.147468 0.181614 0.040483 0.104798 0.077012 -0.097132 0.004855 0.049696 0.188377 0.130495 0.050500 0.129864 0.186220 0.181948 0.279233 0.127055 0.129579 0.045796 0.008123 0.064634 0.052232 0.103789 0.170990 0.140394 0.095666 0.061900 0.303682 0.088837 0.113588 0.076903 0.162761 0.061839 -0.003698 -0.000901 -0.059021 0.045366 0.058257 0.047308 0.033849 -0.012793 0.045071 0.010640 0.030171 -0.011922 -0.073802 -0.036793 -0.047818 0.079022 -0.056222 -0.015603 0.023383 0.024236 0.022020 0.050366 -0.040939 -0.032910 -0.027482 0.035191 0.001366 0.021374 -0.057361 -0.026153 0.094447 0.000635 -0.014153 0.172206 -0.072842 -0.081597 0.012657 0.007326 -0.012380 0.007466 -0.037421 0.012914 -0.103181 0.020841 0.062193 0.069903 -0.063154 0.004838 -0.044695 -0.027985 0.070395 0.069546 -0.071376 -0.013636 -0.067086 -0.064497 0.043724 -0.001660 -0.078693 0.046737 -0.100394 -0.087619 -0.111233 -0.044341 0.059234 -0.069869 -0.223926 -0.030688 0.060539 -0.053818 -0.037541 0.049575 -0.051684 -0.028483 0.015384 -0.067822 -0.095562 -0.100815 -0.120645 0.055396 0.001856 -0.067574 0.014188 0.086277 -0.124095 0.002703 0.027667 -0.085810 0.034455 -0.016055 -0.121449 -0.070865 0.034776 0.133978 -0.046045 -0.214425 -0.122723 0.126234 0.000453 -0.004199 0.145784 0.077819 0.014016 0.005699 0.011736 0.077035 0.114484 -0.016243 0.051375 0.116089 -0.067440 0.091851 0.280323 0.126659 0.130489 0.083930 -0.028692 0.053871 -0.011399 0.048509 0.363562 0.467240 0.394661 0.594266 0.851326 0.281883 -0.343065 -0.239139 -1.414507
0.072396 0.072907 0.074440 0.076994 0.080569 0.085163 0.090776 0.097406 0.105051 0.113707 0.123372 0.134040 0.145707 0.158365 0.172006 0.186621 0.202198 0.218725 0.236184 0.254558 0.273827 0.293966 0.314947 0.336741 0.359312 0.382621 0.406626 0.431278 0.456523 0.482304 0.508557 0.535210 0.562189 0.589409 0.616784 0.644215 0.671602 0.698833 0.725792 0.752356 0.778392 0.803764 0.828326 0.851929 0.874413 0.895618 0.915374 0.933508 0.949846 0.964206 0.976408 0.986269 0.993606 0.998239 0.999990 0.998685 0.994156 0.986246 0.974803 0.959691 0.940786 0.917979 0.891183 0.860327 0.825367 0.786282 0.743080 0.695796 0.644501 0.589298 0.530324 0.467758 0.401814 0.332748 0.260859 0.186485 0.110006 0.031846 0.047534 0.127630 0.207903 0.287779 0.366652 0.443888 0.518831 0.590806 0.659127 0.723101 0.782038 0.835258 0.882099 0.921925 0.954138 0.978185 0.993570 0.999862 0.996705 0.983831 0.961065 0.928337 0.885686 0.833273 0.771382 0.700426 0.620949 0.533630 0.439280 0.338839 0.233372 0.124059 0.012191 0.100850 0.213601 0.324536 0.432089 0.534672 0.630700 0.718619 0.796932 0.864225 0.919199 0.960697 0.987730 0.999510 0.995469 0.975286 0.938904 0.886546 0.818730 0.736269 0.640279 0.532166 0.413622 0.286599 0.153291 0.016095 0.122423 0.259575 0.392601 0.518724 0.635212 0.739436 0.828938 0.901492 0.955168 0.988391 0.999994 0.989266 0.955993 0.900484 0.823589 0.726707 0.611770 0.481225 0.337993 0.185411 0.027169 0.132776 0.290297 0.441193 0.581315 0.706673 0.813560 0.898675 0.959227 0.993046 0.998671 0.975427 0.923473 0.843840 0.738430 0.609995 0.462084 0.298965 0.125516 0.052912 0.230649 0.401889 0.560870 0.702083 0.820466 0.911599 0.971886 0.998715 0.990589 0.947225 0.869610 0.760011 0.621948 0.460093 0.280147 0.088653 0.107225 0.299966 0.481975 0.645886 0.784868 0.892928 0.965187 0.998124 0.989774 0.939868 0.849900 0.723132 0.564500 0.380472 0.178796 0.031803 0.241976 0.442174 0.623072 0.776021 0.893476 0.969392 0.999570 0.981919 0.916624 0.806221 0.655539 0.471537 0.263012 0.040218 0.185624 0.402889 0.600126 0.766690 0.893332 0.972740 1.000000 0.972940 0.892336 0.761962 0.588461 0.381063 0.151131 0.088429 0.323879 0.541426 0.728044 0.872267 0.964936 0.999816 0.974067 0.888518 0.747724 0.559783 0.335936 0.089925 0.162802 0.406054 0.623926 0.801863 0.927654 0.992320 0.990806 0.922435 0.791077 0.605003 0.376439 0.120807 0.144265 0.400136 0.628472 0.812560 0.938583 0.996697 0.981869 0.894377 0.739932 0.529389 0.278048 0.004619 0.270146 0.525016 0.739919 0.897554 0.984841 0.994071 0.923666 0.778456 0.569451 0.313098 0.030039 0.256494 0.522564 0.745537 0.906047 0.989734 0.988599 0.901866 0.736216 0.505385 0.229118 0.068457 0.360884 0.621728 0.826972 0.957290 0.999934 0.950076 0.811450 0.596194 0.323900 0.019919 0.286940 0.567120 0.793177 0.942499 0.999669 0.958141 0.821102 0.601371 0.320320 0.005896 0.310103 0.595205 0.819631 0.959449 0.999218 0.933817 0.769204 0.522027 0.218068 0.110358 0.427772 0.699354 0.894801 0.991781 0.978602 0.855743 0.636071 0.343634 0.011142 0.323587 0.621932 0.848910 0.977371 0.991350 0.888190 0.679130 0.388262 0.049863 0.295521 0.605911 0.843004 0.976978 0.990357 0.880446 0.659966 0.355747 0.005635 0.346158 0.654559 0.879474 0.991053 0.973817 0.828951 0.574483 0.243236 0.121302 0.470567 0.757372 0.942374
1.000000 1.000000 1.000000 1.000000 1.000000 1.000000 1.000000 1.000000 1.000000 1.000000 1.000000 1.000000 1.000000 1.000000 1.000000 1.000000 1.000000 1.000000 1.000000 1.000000 1.000000 1.000000 1.000000 1.000000 1.000000 1.000000 1.000000 1.000000 1.000000 1.000000 1.000000 1.000000 1.000000 1.000000 1.000000 1.000000 1.000000 1.000000 1.000000 1.000000 1.000000 1.000000 1.000000 1.000000 1.000000 1.000000 1.000000 1.000000 1.000000 1.000000 1.000000 1.000000 0.823456 0.823456 0.823456 0.800857 0.800857 0.800857 0.800857 0.800857 0.800857 0.800857 0.800857 0.800857 0.800857 0.800857 0.800857 0.800857 0.800857 0.800857 0.800857 0.800857 0.800857 0.800857 0.800857 0.800857 0.800857 0.800857 0.800857 0.800857 0.800857 0.800857 0.800857 0.800857 0.800857 0.800857 0.800857 0.800857 0.800857 0.800857 0.800857 0.800857 0.800857 0.800857 0.800857 0.800857 0.853272 0.859869 0.865092 0.869020 0.869547 0.867440 0.865941 0.865620 0.865462 0.866066 0.874543 0.900083 0.913455 0.915085 0.928582 0.930318 0.935759 0.937012 0.957190 0.959078 0.960808 0.960037 0.960914 0.962819 0.969365 0.969449 0.966795 0.966916 0.971376 0.971372 0.967936 0.966898 0.966000 0.963428 0.963331 0.962282 0.962148 0.962828 0.957175 0.957237 0.957398 0.955765 0.954135 0.948538 0.943970 0.942579 0.942707 0.924808 0.918126 0.911493 0.903283 0.920943 0.915561 0.907162 0.906848 0.895337 0.897713 0.894835 0.880490 0.880583 0.875791 0.871101 0.858493 0.858950 0.860943 0.865604 0.872036 0.874031 0.860857 0.841163 0.810497 0.793030 0.793819 0.790402 0.785662 0.789288 0.789582 0.788469 0.786087 0.778925 0.766943 0.774526 0.772157 0.767889 0.760886 0.758592 0.744639 0.741603 0.734061 0.713499 0.700247 0.693573 0.704673 0.698150 0.699025 0.702526 0.709913 0.709465 0.709528 0.701855 0.697479 0.689760 0.671362 0.639068 0.651164 0.657197 0.644005 0.638903 0.623926 0.661963 0.667631 0.693631 0.702196 0.704728 0.700862 0.681518 0.650951 0.633661 0.634202 0.630642 0.629849 0.632870 0.639265 0.640749 0.643226 0.572168 0.559918 0.556272 0.568001 0.577851 0.576438 0.572458 0.544218 0.532285 0.528014 0.486721 0.481049 0.473471 0.471052 0.474197 0.459998 0.441789 0.425926 0.445283 0.428957 0.433324 0.413504 0.398200 0.368993 0.370546 0.370084 0.358183 0.336575 0.285132 0.287454 0.307374 0.314032 0.314786 0.296247 0.295745 0.287054 0.260177 0.246346 0.253898 0.243721 0.239579 0.240163 0.212078 0.203894 0.108047 0.107458 0.131205 0.142758 0.130795 0.121435 0.151711 0.152440 0.135333 0.112415 0.060271 0.020950 0.003901 0.028972 0.037713 0.060858 0.045124 0.034135 0.035234 0.048693 0.002152 -0.008305 -0.019484 -0.019439 -0.011105 0.015464 0.000207 -0.019848 -0.005182 0.015054 -0.021127 -0.006551 0.002387 0.032154 0.011960 0.000558 -0.011385 -0.018720 -0.033887 -0.041129 -0.034004 -0.025588 -0.017753 0.012615 -0.033809 -0.055983 -0.063591 -0.051391 -0.081818 -0.042964 -0.052020 -0.036466 -0.045687 -0.045096 -0.021920 0.042705 0.047641 0.046588 0.013350 0.051705 0.018772 0.008688 0.026152 -0.008240 -0.008839 0.037667 0.053229 0.063937 0.011163 -0.001246 -0.001246 -0.001246 -0.025222 -0.025222 -0.025222 -0.025222 -0.025222 -0.025222 -0.025222 -0.025222 -0.025222 -0.032586 -0.032586 -0.032586 -0.032586 -0.032586 -0.032586 -0.032586 -0.032586 -0.032586 -0.032586 -0.032586 -0.032586 -0.032586 -0.032586 -0.032586 -0.032586 -0.032586
0.000000 0.000000 0.000000 0.000000 0.000000 0.000000 0.000000 0.000000 0.000000 0.000000 0.000000 0.000000 0.000000 0.000000 0.000000 0.000000 0.000000 0.000000 0.000000 0.000000 0.000000 0.000000 0.000000 0.000000 0.000000 0.000000 0.000000 0.000000 0.000000 0.000000 0.000000 0.000000 0.000000 0.000000 0.000000 0.000000 0.000000 0.000000 0.000000 0.000000 0.000000 0.000000 0.000000 0.000000 0.000000 0.000000 0.000000 0.000000 0.000000 0.000000 0.000000 0.000000 0.180334 0.180334 0.180334 0.199007 0.199007 0.199007 0.199007 0.199007 0.199007 0.199007 0.199007 0.199007 0.199007 0.199007 0.199007 0.199007 0.199007 0.199007 0.199007 0.199007 0.199007 0.199007 0.199007 0.199007 0.199007 0.199007 0.199007 0.199007 0.199007 0.199007 0.199007 0.199007 0.199007 0.199007 0.199007 0.199007 0.199007 0.199007 0.199007 0.199007 0.199007 0.199007 0.199007 0.199007 0.230940 0.230940 0.230940 0.230940 0.230940 0.230940 0.230940 0.230940 0.230940 0.230940 0.230940 0.230940 0.230940 0.230940 0.230940 0.230940 0.230940 0.230940 0.230940 0.230940 0.230940 0.230940 0.230940 0.230940 0.230940 0.230940 0.230940 0.230940 0.244339 0.244339 0.244339 0.244339 0.244339 0.244339 0.244339 0.244339 0.244339 0.244339 0.244339 0.244339 0.244339 0.244339 0.244339 0.244339 0.244339 0.244339 0.244339 0.244339 0.244339 0.244339 0.244339 0.256074 0.256074 0.256074 0.256074 0.256074 0.256074 0.256074 0.256074 0.256074 0.256074 0.256074 0.256074 0.256074 0.256074 0.256074 0.256074 0.256074 0.256074 0.256074 0.256074 0.256074 0.256074 0.256074 0.256074 0.256074 0.256074 0.256074 0.256074 0.256074 0.256074 0.256074 0.256074 0.256074 0.256074 0.256074 0.256074 0.256074 0.264906 0.264906 0.264906 0.264906 0.264906 0.264906 0.264906 0.264906 0.264906 0.264906 0.264906 0.264906 0.264906 0.264906 0.264906 0.264906 0.264906 0.264906 0.264906 0.264906 0.264906 0.264906 0.264906 0.264906 0.264906 0.264906 0.264906 0.264906 0.264906 0.264906 0.264906 0.264906 0.264906 0.264906 0.264906 0.264906 0.264906 0.264906 0.264906 0.264906 0.264906 0.264906 0.264906 0.264906 0.264906 0.264906 0.264906 0.264906 0.264906 0.264906 0.264906 0.264906 0.264906 0.264906 0.264906 0.264906 0.264906 0.264906 0.269680 0.269680 0.269680 0.269680 0.269680 0.269680 0.269680 0.269680 0.269680 0.269680 0.269680 0.269680 0.264906 0.264906 0.264906 0.264906 0.264906 0.264906 0.264906 0.264906 0.264906 0.264906 0.264906 0.264906 0.269680 0.269680 0.269680 0.269680 0.269680 0.269680 0.269680 0.269680 0.269680 0.269680 0.269680 0.264906 0.264906 0.264906 0.264906 0.264906 0.264906 0.264906 0.264906 0.264906 0.264906 0.264906 0.269680 0.269680 0.269680 0.269680 0.269680 0.269680 0.269680 0.269680 0.269680 0.269680 0.251976 0.251976 0.251976 0.251976 0.251976 0.251976 0.251976 0.251976 0.251976 0.251976 0.251976 0.269680 0.269680 0.269680 0.269680 0.269680 0.269680 0.269680 0.269680 0.269680 0.256074 0.256074 0.256074 0.256074 0.256074 0.256074 0.256074 0.256074 0.256074 0.256074 0.260378 0.260378 0.260378 0.260378 0.260378 0.260378 0.260378 0.260378 0.260378 0.256074 0.256074 0.256074 0.256074 0.256074 0.256074 0.256074 0.256074 0.256074 0.251976 0.251976 0.251976 0.251976 0.251976 0.251976 0.251976 0.251976 0.251976 0.251976 0.251976 0.251976 0.251976 0.251976 0.251976 0.251976 0.251976
