# Output from CTFFind version 4.1.9, run on 2019-11-03 20:05:25
# Input file: stack11_bm3d_averaged_1_7.0_0_750_half.mrc ; Number of micrographs: 1
# Pixel size: 3.000 Angstroms ; acceleration voltage: 300.0 keV ; spherical aberration: 0.00 mm ; amplitude contrast: 0.07
# Box size: 512 pixels ; min. res.: 30.0 Angstroms ; max. res.: 5.0 Angstroms ; min. def.: 5000.0 um; max. def. 50000.0 um; num. frames averaged: 1
# 6 lines per micrograph: #1 - spatial frequency (1/Angstroms); #2 - 1D rotational average of spectrum (assuming no astigmatism); #3 - 1D rotational average of spectrum; #4 - CTF fit; #5 - cross-correlation between spectrum and CTF fit; #6 - 2sigma of expected cross correlation of noise
0.000000 0.000651 0.001302 0.001953 0.002604 0.003255 0.003906 0.004557 0.005208 0.005859 0.006510 0.007161 0.007812 0.008464 0.009115 0.009766 0.010417 0.011068 0.011719 0.012370 0.013021 0.013672 0.014323 0.014974 0.015625 0.016276 0.016927 0.017578 0.018229 0.018880 0.019531 0.020182 0.020833 0.021484 0.022135 0.022786 0.023438 0.024089 0.024740 0.025391 0.026042 0.026693 0.027344 0.027995 0.028646 0.029297 0.029948 0.030599 0.031250 0.031901 0.032552 0.033203 0.033854 0.034505 0.035156 0.035807 0.036458 0.037109 0.037760 0.038411 0.039062 0.039714 0.040365 0.041016 0.041667 0.042318 0.042969 0.043620 0.044271 0.044922 0.045573 0.046224 0.046875 0.047526 0.048177 0.048828 0.049479 0.050130 0.050781 0.051432 0.052083 0.052734 0.053385 0.054036 0.054688 0.055339 0.055990 0.056641 0.057292 0.057943 0.058594 0.059245 0.059896 0.060547 0.061198 0.061849 0.062500 0.063151 0.063802 0.064453 0.065104 0.065755 0.066406 0.067057 0.067708 0.068359 0.069010 0.069661 0.070312 0.070964 0.071615 0.072266 0.072917 0.073568 0.074219 0.074870 0.075521 0.076172 0.076823 0.077474 0.078125 0.078776 0.079427 0.080078 0.080729 0.081380 0.082031 0.082682 0.083333 0.083984 0.084635 0.085286 0.085938 0.086589 0.087240 0.087891 0.088542 0.089193 0.089844 0.090495 0.091146 0.091797 0.092448 0.093099 0.093750 0.094401 0.095052 0.095703 0.096354 0.097005 0.097656 0.098307 0.098958 0.099609 0.100260 0.100911 0.101562 0.102214 0.102865 0.103516 0.104167 0.104818 0.105469 0.106120 0.106771 0.107422 0.108073 0.108724 0.109375 0.110026 0.110677 0.111328 0.111979 0.112630 0.113281 0.113932 0.114583 0.115234 0.115885 0.116536 0.117188 0.117839 0.118490 0.119141 0.119792 0.120443 0.121094 0.121745 0.122396 0.123047 0.123698 0.124349 0.125000 0.125651 0.126302 0.126953 0.127604 0.128255 0.128906 0.129557 0.130208 0.130859 0.131510 0.132161 0.132812 0.133464 0.134115 0.134766 0.135417 0.136068 0.136719 0.137370 0.138021 0.138672 0.139323 0.139974 0.140625 0.141276 0.141927 0.142578 0.143229 0.143880 0.144531 0.145182 0.145833 0.146484 0.147135 0.147786 0.148438 0.149089 0.149740 0.150391 0.151042 0.151693 0.152344 0.152995 0.153646 0.154297 0.154948 0.155599 0.156250 0.156901 0.157552 0.158203 0.158854 0.159505 0.160156 0.160807 0.161458 0.162109 0.162760 0.163411 0.164062 0.164714 0.165365 0.166016 0.166667 0.167318 0.167969 0.168620 0.169271 0.169922 0.170573 0.171224 0.171875 0.172526 0.173177 0.173828 0.174479 0.175130 0.175781 0.176432 0.177083 0.177734 0.178385 0.179036 0.179688 0.180339 0.180990 0.181641 0.182292 0.182943 0.183594 0.184245 0.184896 0.185547 0.186198 0.186849 0.187500 0.188151 0.188802 0.189453 0.190104 0.190755 0.191406 0.192057 0.192708 0.193359 0.194010 0.194661 0.195312 0.195964 0.196615 0.197266 0.197917 0.198568 0.199219 0.199870 0.200521 0.201172 0.201823 0.202474 0.203125 0.203776 0.204427 0.205078 0.205729 0.206380 0.207031 0.207682 0.208333 0.208984 0.209635 0.210286 0.210938 0.211589 0.212240 0.212891 0.213542 0.214193 0.214844 0.215495 0.216146 0.216797 0.217448 0.218099 0.218750 0.219401 0.220052 0.220703 0.221354 0.222005 0.222656 0.223307 0.223958 0.224609 0.225260 0.225911 0.226562 0.227214 0.227865 0.228516 0.229167 0.229818 0.230469 0.231120 0.231771 0.232422 0.233073 0.233724 0.234375 0.235026 0.235677
       0.34525        0.34525        0.34525        0.34525        0.34525        0.34525        0.34525        0.34525        0.34525        0.34525        0.34525        0.34525        0.34525        0.34525        0.34525        0.34525        0.34525        0.34525        0.34525        0.34525        0.34525        0.34525        0.34525        0.34525        0.34525        0.34525        0.34525        0.34525        0.34525        0.34525        0.34525        0.34525        0.34525        0.34525        0.34525        0.34525        0.34525        0.34525        0.34525        0.34525        0.34525        0.34525        0.34525        0.34525        0.34525        0.34525        0.34525        0.34525        0.34525        0.34525        0.34525        0.69912        0.85732        0.53811        0.10527       -0.02908       -0.38510       -0.17984       -0.28837       -0.11629       -0.05514       -0.11297       -0.05342       -0.16594       -0.20539       -0.21336       -0.30671       -0.31811       -0.44334       -0.36183       -0.42540       -0.42049       -0.39315       -0.40569       -0.44557       -0.50655       -0.55820       -0.54867       -0.52273       -0.35574       -0.32494       -0.29025       -0.27024       -0.18559       -0.16935        0.06195        0.14289        0.17641        0.26694        0.38146        0.45782        0.52319        0.60158        0.59863        0.58482        0.70048        0.80307        0.70250        0.74425        0.61892        0.56847        0.48358        0.43311        0.51242        0.39816        0.27278        0.11745        0.11444        0.09500       -0.01234        0.04637        0.05372        0.01302        0.02822        0.03211        0.23683        0.27167        0.29652        0.43573        0.45393        0.41503        0.60087        0.61803        0.63434        0.72345        0.67565        0.64727        0.65586        0.56008        0.46023        0.41898        0.30424        0.27140        0.18562        0.13700        0.05260        0.06720        0.07721        0.10051        0.16108        0.24637        0.29937        0.42368        0.46581        0.48154        0.56378        0.60174        0.63650        0.61475        0.55804        0.46253        0.47344        0.37888        0.27855        0.21291        0.15656        0.17374        0.15414        0.16252        0.19224        0.32444        0.33919        0.40883        0.44760        0.42553        0.47976        0.56346        0.55559        0.50366        0.45755        0.41437        0.37406        0.34307        0.31052        0.26605        0.24751        0.25641        0.25755        0.22700        0.31099        0.36540        0.38483        0.43922        0.45611        0.46750        0.42818        0.41325        0.40225        0.36371        0.33913        0.27522        0.28266        0.26971        0.24829        0.29698        0.29446        0.35304        0.38374        0.43618        0.47682        0.40691        0.42257        0.43280        0.41235        0.35101        0.32982        0.29321        0.32766        0.27683        0.32481        0.31671        0.33433        0.34253        0.36565        0.31360        0.38814        0.41200        0.38135        0.35267        0.36960        0.31970        0.29619        0.30906        0.32021        0.30866        0.32095        0.34610        0.35856        0.34134        0.36435        0.36280        0.42451        0.39124        0.34073        0.34994        0.30048        0.29531        0.32736        0.32069        0.33129        0.34416        0.34429        0.38856        0.33138        0.33041        0.33927        0.35015        0.30524        0.31345        0.28320        0.30357        0.33233        0.30470        0.33283        0.35967        0.37190        0.30007        0.34449        0.30049        0.29301        0.27973        0.24770        0.30866        0.30830        0.34344        0.34042        0.34575        0.32851        0.35000        0.31583        0.34653        0.30622        0.32672        0.29364        0.33782        0.33210        0.37400        0.33240        0.33726        0.33741        0.29364        0.27677        0.31343        0.25114        0.23018        0.34139        0.32423        0.36853        0.34814        0.36419        0.33673        0.33437        0.35245        0.26688        0.27050        0.32006        0.30188        0.31153        0.31455        0.33965        0.32941        0.28891        0.29157        0.34619        0.32268        0.32324        0.30002        0.32202        0.33806        0.39302        0.36436        0.32097        0.28356        0.30369        0.29036        0.30860        0.27949        0.27261        0.31322        0.32961        0.34595        0.35674        0.33270        0.29637        0.30194        0.27204        0.27924        0.25731        0.30654        0.26052        0.24973        0.28894        0.28414        0.26290        0.29418        0.22057        0.21686        0.23858        0.19468        0.27474        0.34978        0.25423        0.24555        0.31906        0.30139        0.30925        0.31430        0.27454        0.25250        0.19490        0.21139        0.20904        0.28460        0.23715        0.28442        0.36506        0.37236        0.25610        0.18075        0.12860       -0.01548       -0.13361       -0.62702
2.809946 2.780121 2.750458 2.720957 2.691619 2.662443 2.633429 2.604578 2.575890 2.547364 2.519000 2.490799 2.462760 2.434884 2.407170 2.379619 2.352230 2.325003 2.297939 2.271037 2.244298 2.217722 2.191307 2.165055 2.138966 2.113039 2.087275 2.061672 2.036233 2.010956 1.985841 1.960889 1.936099 1.911471 1.887006 1.862704 1.838564 1.814586 1.790771 1.767118 1.743628 1.720300 1.697135 1.674132 1.651291 1.628613 1.606097 1.583744 1.561554 1.539525 1.517659 1.736118 2.163070 1.717575 1.194774 1.057405 0.456163 0.853184 0.562822 0.848189 0.818458 0.821357 0.759987 0.758919 0.599213 0.563166 0.503299 0.428532 0.250343 0.365276 0.199424 0.331325 0.219012 0.211620 0.186111 0.041837 0.001266 0.018886 -0.070304 0.133722 0.234116 0.189298 0.180339 0.324956 0.184291 0.524233 0.627975 0.638152 0.655130 0.881137 0.839661 0.948312 0.945450 1.042028 1.012119 1.094451 1.177420 1.049367 1.172830 0.914278 0.934238 0.800427 0.657338 0.813358 0.698400 0.499996 0.335139 0.252671 0.271537 0.149896 0.138862 0.167232 0.109971 0.119295 0.083518 0.249203 0.351539 0.342641 0.479234 0.547318 0.418539 0.597571 0.735249 0.647480 0.722647 0.712956 0.722197 0.648428 0.598469 0.491674 0.368389 0.277906 0.220716 0.092666 0.116669 -0.117807 -0.049420 -0.063557 -0.085036 -0.017929 0.128786 0.071770 0.243528 0.308722 0.337585 0.373932 0.497339 0.466683 0.480445 0.491696 0.306040 0.294245 0.287647 0.086649 0.046071 -0.082624 -0.015934 -0.063113 -0.097427 -0.070308 0.040592 0.095581 0.127132 0.226785 0.223516 0.220496 0.316082 0.342527 0.447284 0.256856 0.232838 0.227787 0.144030 0.145806 0.119986 -0.004604 0.014919 0.077591 -0.010691 0.045017 0.134183 0.135739 0.213667 0.233877 0.258531 0.161244 0.212085 0.128906 0.126460 0.115175 0.027126 -0.026482 -0.001244 -0.020523 -0.052082 0.055787 0.004182 0.106814 0.138605 0.194619 0.164082 0.117818 0.140601 0.159819 0.110178 0.035745 -0.025960 0.028309 0.029214 -0.044254 0.038482 0.020119 0.048129 0.039600 0.055488 0.019488 0.139697 0.118565 0.046754 0.037112 0.042076 0.005253 -0.030766 0.008577 0.004033 -0.004427 0.002882 0.057680 0.053849 0.038726 0.073419 0.061301 0.164812 0.064012 0.041852 0.043560 -0.034942 0.012339 0.047604 0.007794 0.032686 0.056208 0.077660 0.057816 0.041640 0.007951 0.079815 0.027414 0.020528 0.024744 -0.006176 0.032171 0.026751 0.020639 0.069591 0.076028 0.078174 0.041979 0.053283 0.022624 0.015072 -0.024325 -0.024940 0.037114 0.052760 0.080688 0.081230 0.067073 0.070694 0.097355 0.042657 0.090120 0.056749 0.044939 0.018203 0.104499 0.062860 0.125577 0.065779 0.067415 0.096635 0.030399 0.002643 0.085449 -0.040243 -0.029325 0.093162 0.043196 0.159315 0.091756 0.088809 0.065629 0.031073 0.090328 -0.027331 -0.024582 0.047443 0.032807 0.032318 0.017319 0.101851 0.030226 -0.013935 0.049376 0.040479 0.053519 0.056136 -0.009514 0.056531 0.049462 0.122967 0.052016 0.027607 -0.029887 -0.028674 -0.004828 0.008539 -0.057655 -0.021212 0.000372 0.016432 0.035091 0.059539 0.004979 -0.032564 -0.029362 -0.018636 -0.066879 -0.045951 -0.035356 -0.131205 -0.095410 -0.060408 -0.095698 -0.106334 -0.027547 -0.153933 -0.104624 -0.115863 -0.190173 -0.069536 0.061251 -0.074877 -0.136014 0.050908 0.027586 -0.027958 0.072110 -0.023981 -0.004129 -0.084633 -0.039994 0.047836 0.131261 0.053376 0.138387 0.168364 0.438305 0.239930 0.326408 0.164147 -0.021153 -0.702400
0.072396 0.072899 0.074408 0.076923 0.080443 0.084966 0.090493 0.097021 0.104548 0.113072 0.122588 0.133093 0.144581 0.157046 0.170480 0.184874 0.200217 0.216496 0.233696 0.251800 0.270786 0.290634 0.311316 0.332803 0.355062 0.378055 0.401741 0.426075 0.451004 0.476474 0.502422 0.528782 0.555480 0.582438 0.609570 0.636784 0.663981 0.691057 0.717898 0.744386 0.770395 0.795793 0.820439 0.844189 0.866891 0.888388 0.908516 0.927110 0.943997 0.959004 0.971953 0.982668 0.990968 0.996677 0.999620 0.999625 0.996525 0.990163 0.980386 0.967056 0.950045 0.929240 0.904545 0.875884 0.843201 0.806462 0.765663 0.720823 0.671994 0.619259 0.562735 0.502574 0.438966 0.372140 0.302362 0.229942 0.155227 0.078606 0.000509 0.078597 0.158206 0.237778 0.316741 0.394491 0.470400 0.543821 0.614090 0.680532 0.742473 0.799240 0.850172 0.894631 0.932005 0.961721 0.983254 0.996136 0.999965 0.994414 0.979244 0.954308 0.919563 0.875073 0.821021 0.757712 0.685576 0.605171 0.517184 0.422430 0.321851 0.216506 0.107567 0.003691 0.115906 0.227638 0.337392 0.443632 0.544806 0.639369 0.725806 0.802661 0.868560 0.922243 0.962591 0.988649 0.999656 0.995069 0.974581 0.938146 0.885989 0.818616 0.736826 0.641707 0.534631 0.417245 0.291451 0.159383 0.023377 0.114066 0.250327 0.382713 0.508509 0.625039 0.729725 0.820147 0.894102 0.949672 0.985273 0.999711 0.992230 0.962551 0.910896 0.838014 0.745182 0.634200 0.507369 0.367461 0.217660 0.061508 0.097179 0.254392 0.406039 0.548040 0.676451 0.787570 0.878057 0.945043 0.986234 0.999998 0.985449 0.942495 0.871884 0.775208 0.654895 0.514165 0.356964 0.187865 0.011951 0.165330 0.338335 0.501393 0.649007 0.776038 0.877895 0.950719 0.991543 0.998434 0.970598 0.908455 0.813665 0.689125 0.538893 0.368091 0.182746 0.010406 0.204153 0.391078 0.563827 0.715425 0.839554 0.930838 0.985098 0.999568 0.973055 0.906052 0.800768 0.661102 0.492525 0.301896 0.097211 0.112720 0.318638 0.511248 0.681629 0.821677 0.924498 0.984778 0.999089 0.966112 0.886773 0.764266 0.603978 0.413280 0.201230 0.021832 0.244778 0.456230 0.645156 0.801447 0.916484 0.983647 0.998730 0.960241 0.869575 0.731013 0.551583 0.340744 0.109925 0.128069 0.359750 0.571711 0.751402 0.887913 0.972655 0.999948 0.967446 0.876382 0.731587 0.541306 0.316771 0.071589 0.179063 0.419348 0.633779 0.808228 0.930895 0.993138 0.990143 0.921346 0.790592 0.605993 0.379487 0.126125 0.136897 0.391375 0.619365 0.804447 0.932967 0.995065 0.985509 0.904198 0.756300 0.552011 0.305913 0.036003 0.237589 0.494087 0.713651 0.878931 0.976493 0.997973 0.940862 0.808859 0.611731 0.364666 0.087183 0.198372 0.468591 0.700933 0.875621 0.977390 0.996883 0.931594 0.786253 0.572591 0.308478 0.016514 0.277867 0.548583 0.771230 0.925322 0.996236 0.976690 0.867582 0.678097 0.425047 0.131469 0.175411 0.466654 0.714351 0.894314 0.988517 0.986983 0.888947 0.703145 0.447139 0.145790 0.171103 0.471702 0.725319 0.905598 0.993313 0.978530 0.861843 0.654538 0.377633 0.059864 0.265238 0.562832 0.800528 0.951953 0.999777 0.937810 0.771927 0.519662 0.208496 0.127048 0.449163 0.721019 0.911009 0.996507 0.966682 0.824009 0.584257 0.274883 0.067988 0.403698 0.691871 0.897298 0.994319 0.970160 0.826765 0.580843 0.262090 0.090277 0.432257 0.720550 0.918079 0.998849 0.951519 0.781149 0.508856 0.169380 0.193239
1.000000 1.000000 1.000000 1.000000 1.000000 1.000000 1.000000 1.000000 1.000000 1.000000 1.000000 1.000000 1.000000 1.000000 1.000000 1.000000 1.000000 1.000000 1.000000 1.000000 1.000000 1.000000 1.000000 1.000000 1.000000 1.000000 1.000000 1.000000 1.000000 1.000000 1.000000 1.000000 1.000000 1.000000 1.000000 1.000000 1.000000 1.000000 1.000000 1.000000 1.000000 1.000000 1.000000 1.000000 1.000000 1.000000 1.000000 1.000000 1.000000 1.000000 1.000000 1.000000 0.915625 0.915625 0.915625 0.911204 0.911204 0.911204 0.911204 0.911204 0.911204 0.911204 0.911204 0.911204 0.911204 0.911204 0.911204 0.911204 0.911204 0.911204 0.911204 0.911204 0.911204 0.911204 0.911204 0.911204 0.911204 0.911204 0.911204 0.911204 0.911204 0.911204 0.911204 0.911204 0.911204 0.911204 0.911204 0.911204 0.911204 0.911204 0.911204 0.911204 0.911204 0.911204 0.911204 0.911204 0.939664 0.941099 0.949444 0.948978 0.948433 0.946445 0.945183 0.944970 0.944883 0.945235 0.945971 0.946967 0.953189 0.954126 0.958539 0.961257 0.961228 0.962966 0.964931 0.964570 0.956254 0.956011 0.954578 0.953850 0.955960 0.954592 0.953355 0.953826 0.953444 0.955863 0.955423 0.954206 0.952556 0.950952 0.949651 0.949098 0.948865 0.949669 0.949748 0.951322 0.954349 0.954510 0.954246 0.951488 0.951103 0.952308 0.951749 0.953566 0.941404 0.940747 0.939277 0.939276 0.941879 0.941770 0.941671 0.942575 0.942277 0.942199 0.942345 0.935665 0.935421 0.927952 0.924284 0.922858 0.917411 0.913343 0.915990 0.918620 0.919825 0.920275 0.911028 0.908108 0.909069 0.907892 0.909359 0.909256 0.910372 0.910760 0.910686 0.905553 0.895867 0.894231 0.886099 0.888815 0.885394 0.882746 0.879805 0.871045 0.862581 0.874644 0.861742 0.819968 0.823654 0.828065 0.820125 0.816168 0.817049 0.818562 0.823552 0.817620 0.816313 0.810347 0.797075 0.792352 0.784841 0.771017 0.768684 0.759701 0.749292 0.743387 0.767183 0.760764 0.772531 0.776903 0.776472 0.772961 0.763820 0.752969 0.753256 0.752299 0.748971 0.726070 0.716743 0.716817 0.713920 0.700651 0.703757 0.691719 0.691918 0.679662 0.684719 0.690384 0.693565 0.689312 0.683151 0.674821 0.671040 0.684224 0.698244 0.690683 0.686818 0.693266 0.683882 0.678594 0.670761 0.674729 0.666996 0.659512 0.661939 0.696160 0.668904 0.658583 0.666093 0.667827 0.664007 0.664381 0.643877 0.637589 0.614972 0.632180 0.637774 0.654548 0.656286 0.659080 0.670246 0.675857 0.686461 0.690911 0.689282 0.649798 0.653770 0.671873 0.679849 0.669164 0.659390 0.654314 0.646402 0.682614 0.668046 0.625759 0.622013 0.622291 0.578101 0.557401 0.556023 0.557925 0.584586 0.577435 0.558538 0.532226 0.533991 0.535794 0.534747 0.533229 0.517475 0.525116 0.509806 0.486007 0.498231 0.506056 0.504315 0.488373 0.481887 0.495396 0.474260 0.501301 0.478068 0.459940 0.476867 0.475485 0.463208 0.390793 0.398986 0.388491 0.374246 0.330612 0.340114 0.350039 0.331884 0.256751 0.250999 0.251722 0.248165 0.228005 0.204669 0.191104 0.180926 0.158498 0.098053 0.049120 0.050819 0.054612 0.081222 0.040623 0.095584 0.164022 0.161929 0.161929 0.161929 0.161929 0.161929 0.161929 0.161929 0.161929 0.137561 0.137561 0.137561 0.137561 0.137561 0.137561 0.137561 0.137561 0.137561 0.161929 0.161929 0.161929 0.161929 0.161929 0.161929 0.161929 0.161929 0.161929 0.161929 0.161929 0.161929 0.161929 0.161929
0.000000 0.000000 0.000000 0.000000 0.000000 0.000000 0.000000 0.000000 0.000000 0.000000 0.000000 0.000000 0.000000 0.000000 0.000000 0.000000 0.000000 0.000000 0.000000 0.000000 0.000000 0.000000 0.000000 0.000000 0.000000 0.000000 0.000000 0.000000 0.000000 0.000000 0.000000 0.000000 0.000000 0.000000 0.000000 0.000000 0.000000 0.000000 0.000000 0.000000 0.000000 0.000000 0.000000 0.000000 0.000000 0.000000 0.000000 0.000000 0.000000 0.000000 0.000000 0.000000 0.180334 0.180334 0.180334 0.199007 0.199007 0.199007 0.199007 0.199007 0.199007 0.199007 0.199007 0.199007 0.199007 0.199007 0.199007 0.199007 0.199007 0.199007 0.199007 0.199007 0.199007 0.199007 0.199007 0.199007 0.199007 0.199007 0.199007 0.199007 0.199007 0.199007 0.199007 0.199007 0.199007 0.199007 0.199007 0.199007 0.199007 0.199007 0.199007 0.199007 0.199007 0.199007 0.199007 0.199007 0.225018 0.225018 0.225018 0.225018 0.225018 0.225018 0.225018 0.225018 0.225018 0.225018 0.225018 0.225018 0.225018 0.225018 0.225018 0.225018 0.225018 0.225018 0.225018 0.225018 0.225018 0.225018 0.225018 0.225018 0.225018 0.225018 0.225018 0.225018 0.225018 0.244339 0.244339 0.244339 0.244339 0.244339 0.244339 0.244339 0.244339 0.244339 0.244339 0.244339 0.244339 0.244339 0.244339 0.244339 0.244339 0.244339 0.244339 0.244339 0.244339 0.244339 0.244339 0.244339 0.256074 0.256074 0.256074 0.256074 0.256074 0.256074 0.256074 0.256074 0.256074 0.256074 0.256074 0.256074 0.256074 0.256074 0.256074 0.256074 0.256074 0.256074 0.256074 0.256074 0.256074 0.256074 0.256074 0.256074 0.256074 0.256074 0.256074 0.256074 0.256074 0.256074 0.256074 0.256074 0.256074 0.256074 0.256074 0.256074 0.256074 0.264906 0.264906 0.264906 0.264906 0.264906 0.264906 0.264906 0.264906 0.264906 0.264906 0.264906 0.264906 0.264906 0.264906 0.264906 0.264906 0.264906 0.264906 0.264906 0.264906 0.264906 0.264906 0.264906 0.264906 0.264906 0.264906 0.264906 0.264906 0.264906 0.264906 0.264906 0.264906 0.264906 0.264906 0.264906 0.264906 0.264906 0.264906 0.264906 0.264906 0.264906 0.264906 0.264906 0.264906 0.264906 0.264906 0.264906 0.264906 0.264906 0.264906 0.264906 0.264906 0.264906 0.264906 0.264906 0.264906 0.264906 0.264906 0.260378 0.260378 0.260378 0.260378 0.260378 0.260378 0.260378 0.260378 0.260378 0.260378 0.260378 0.260378 0.260378 0.264906 0.264906 0.264906 0.264906 0.264906 0.264906 0.264906 0.264906 0.264906 0.264906 0.264906 0.264906 0.269680 0.269680 0.269680 0.269680 0.269680 0.269680 0.269680 0.269680 0.269680 0.269680 0.269680 0.264906 0.264906 0.264906 0.264906 0.264906 0.264906 0.264906 0.264906 0.264906 0.264906 0.264906 0.256074 0.256074 0.256074 0.256074 0.256074 0.256074 0.256074 0.256074 0.256074 0.256074 0.256074 0.264906 0.264906 0.264906 0.264906 0.264906 0.264906 0.264906 0.264906 0.264906 0.264906 0.260378 0.260378 0.260378 0.260378 0.260378 0.260378 0.260378 0.260378 0.260378 0.260378 0.264906 0.264906 0.264906 0.264906 0.264906 0.264906 0.264906 0.264906 0.264906 0.251976 0.251976 0.251976 0.251976 0.251976 0.251976 0.251976 0.251976 0.251976 0.251976 0.256074 0.256074 0.256074 0.256074 0.256074 0.256074 0.256074 0.256074 0.256074 0.251976 0.251976 0.251976 0.251976 0.251976 0.251976 0.251976 0.251976 0.251976 0.251976 0.251976 0.251976 0.251976 0.251976
