# Output from CTFFind version 4.1.9, run on 2019-11-03 20:04:51
# Input file: stack1_bm3d_averaged_1_7.0_0_750_half.mrc ; Number of micrographs: 1
# Pixel size: 3.000 Angstroms ; acceleration voltage: 300.0 keV ; spherical aberration: 0.00 mm ; amplitude contrast: 0.07
# Box size: 512 pixels ; min. res.: 30.0 Angstroms ; max. res.: 5.0 Angstroms ; min. def.: 5000.0 um; max. def. 50000.0 um; num. frames averaged: 1
# 6 lines per micrograph: #1 - spatial frequency (1/Angstroms); #2 - 1D rotational average of spectrum (assuming no astigmatism); #3 - 1D rotational average of spectrum; #4 - CTF fit; #5 - cross-correlation between spectrum and CTF fit; #6 - 2sigma of expected cross correlation of noise
0.000000 0.000651 0.001302 0.001953 0.002604 0.003255 0.003906 0.004557 0.005208 0.005859 0.006510 0.007161 0.007812 0.008464 0.009115 0.009766 0.010417 0.011068 0.011719 0.012370 0.013021 0.013672 0.014323 0.014974 0.015625 0.016276 0.016927 0.017578 0.018229 0.018880 0.019531 0.020182 0.020833 0.021484 0.022135 0.022786 0.023438 0.024089 0.024740 0.025391 0.026042 0.026693 0.027344 0.027995 0.028646 0.029297 0.029948 0.030599 0.031250 0.031901 0.032552 0.033203 0.033854 0.034505 0.035156 0.035807 0.036458 0.037109 0.037760 0.038411 0.039062 0.039714 0.040365 0.041016 0.041667 0.042318 0.042969 0.043620 0.044271 0.044922 0.045573 0.046224 0.046875 0.047526 0.048177 0.048828 0.049479 0.050130 0.050781 0.051432 0.052083 0.052734 0.053385 0.054036 0.054688 0.055339 0.055990 0.056641 0.057292 0.057943 0.058594 0.059245 0.059896 0.060547 0.061198 0.061849 0.062500 0.063151 0.063802 0.064453 0.065104 0.065755 0.066406 0.067057 0.067708 0.068359 0.069010 0.069661 0.070312 0.070964 0.071615 0.072266 0.072917 0.073568 0.074219 0.074870 0.075521 0.076172 0.076823 0.077474 0.078125 0.078776 0.079427 0.080078 0.080729 0.081380 0.082031 0.082682 0.083333 0.083984 0.084635 0.085286 0.085938 0.086589 0.087240 0.087891 0.088542 0.089193 0.089844 0.090495 0.091146 0.091797 0.092448 0.093099 0.093750 0.094401 0.095052 0.095703 0.096354 0.097005 0.097656 0.098307 0.098958 0.099609 0.100260 0.100911 0.101562 0.102214 0.102865 0.103516 0.104167 0.104818 0.105469 0.106120 0.106771 0.107422 0.108073 0.108724 0.109375 0.110026 0.110677 0.111328 0.111979 0.112630 0.113281 0.113932 0.114583 0.115234 0.115885 0.116536 0.117188 0.117839 0.118490 0.119141 0.119792 0.120443 0.121094 0.121745 0.122396 0.123047 0.123698 0.124349 0.125000 0.125651 0.126302 0.126953 0.127604 0.128255 0.128906 0.129557 0.130208 0.130859 0.131510 0.132161 0.132812 0.133464 0.134115 0.134766 0.135417 0.136068 0.136719 0.137370 0.138021 0.138672 0.139323 0.139974 0.140625 0.141276 0.141927 0.142578 0.143229 0.143880 0.144531 0.145182 0.145833 0.146484 0.147135 0.147786 0.148438 0.149089 0.149740 0.150391 0.151042 0.151693 0.152344 0.152995 0.153646 0.154297 0.154948 0.155599 0.156250 0.156901 0.157552 0.158203 0.158854 0.159505 0.160156 0.160807 0.161458 0.162109 0.162760 0.163411 0.164062 0.164714 0.165365 0.166016 0.166667 0.167318 0.167969 0.168620 0.169271 0.169922 0.170573 0.171224 0.171875 0.172526 0.173177 0.173828 0.174479 0.175130 0.175781 0.176432 0.177083 0.177734 0.178385 0.179036 0.179688 0.180339 0.180990 0.181641 0.182292 0.182943 0.183594 0.184245 0.184896 0.185547 0.186198 0.186849 0.187500 0.188151 0.188802 0.189453 0.190104 0.190755 0.191406 0.192057 0.192708 0.193359 0.194010 0.194661 0.195312 0.195964 0.196615 0.197266 0.197917 0.198568 0.199219 0.199870 0.200521 0.201172 0.201823 0.202474 0.203125 0.203776 0.204427 0.205078 0.205729 0.206380 0.207031 0.207682 0.208333 0.208984 0.209635 0.210286 0.210938 0.211589 0.212240 0.212891 0.213542 0.214193 0.214844 0.215495 0.216146 0.216797 0.217448 0.218099 0.218750 0.219401 0.220052 0.220703 0.221354 0.222005 0.222656 0.223307 0.223958 0.224609 0.225260 0.225911 0.226562 0.227214 0.227865 0.228516 0.229167 0.229818 0.230469 0.231120 0.231771 0.232422 0.233073 0.233724 0.234375 0.235026 0.235677
       0.34428        0.34428        0.34428        0.34428        0.34428        0.34428        0.34428        0.34428        0.34428        0.34428        0.34428        0.34428        0.34428        0.34428        0.34428        0.34428        0.34428        0.34428        0.34428        0.34428        0.34428        0.34428        0.34428        0.34428        0.34428        0.34428        0.34428        0.34428        0.34428        0.34428        0.34428        0.34428        0.34428        0.34428        0.34428        0.34428        0.34429        0.34428        0.34428        0.34428        0.34428        0.34428        0.34428        0.34428        0.34428        0.34428        0.34428        0.34428        0.34428        0.34428        0.34428        0.34309        0.48638        0.22665        0.07872        0.00151       -0.26998       -0.11456       -0.15810       -0.22168        0.00792       -0.14556       -0.07104       -0.06322       -0.04703       -0.12456       -0.16190       -0.25388       -0.30650       -0.41944       -0.35317       -0.25425       -0.22510       -0.32238       -0.23992       -0.30029       -0.26981       -0.29295       -0.13305       -0.14543       -0.20629       -0.03782        0.02809       -0.02614        0.07204        0.03399        0.23142        0.24440        0.33552        0.35049        0.38306        0.42115        0.49704        0.55515        0.56490        0.50823        0.48646        0.51138        0.46458        0.52002        0.44413        0.41147        0.41480        0.35343        0.29721        0.30729        0.33361        0.22634        0.19642        0.12885        0.15371        0.16341        0.18201        0.16266        0.23351        0.28768        0.31347        0.29183        0.38906        0.46844        0.39559        0.48557        0.59516        0.55036        0.52025        0.56149        0.59623        0.41750        0.48102        0.39641        0.32621        0.30321        0.28278        0.25302        0.19293        0.18426        0.15031        0.20371        0.25722        0.28705        0.34185        0.30554        0.40905        0.42353        0.45766        0.48770        0.48159        0.51111        0.45385        0.43485        0.40768        0.33920        0.31820        0.31263        0.31861        0.25265        0.24533        0.25482        0.24308        0.27131        0.32593        0.42826        0.46203        0.41899        0.42285        0.47027        0.45677        0.46686        0.46126        0.38209        0.36408        0.39955        0.36230        0.30622        0.29956        0.31826        0.28139        0.29895        0.30058        0.31631        0.36311        0.37766        0.42668        0.43667        0.36095        0.45079        0.41873        0.35356        0.30607        0.34736        0.32851        0.30402        0.31901        0.28260        0.28670        0.32342        0.33761        0.43974        0.40890        0.37372        0.39133        0.43096        0.36486        0.35257        0.34031        0.34799        0.28044        0.27753        0.30214        0.37708        0.38206        0.34008        0.34795        0.39605        0.39049        0.45221        0.39419        0.36371        0.33187        0.32579        0.32095        0.31668        0.34189        0.38647        0.36855        0.37269        0.32843        0.43789        0.35694        0.34935        0.33466        0.37812        0.37071        0.30396        0.31250        0.27658        0.31231        0.32737        0.31461        0.33931        0.33246        0.35486        0.34408        0.33698        0.30912        0.29867        0.28315        0.32912        0.33932        0.33632        0.29927        0.34335        0.33626        0.33533        0.33707        0.30451        0.28616        0.31094        0.32669        0.32058        0.31484        0.29620        0.31368        0.34273        0.33080        0.32854        0.38471        0.33610        0.27280        0.31516        0.32612        0.32004        0.34229        0.29475        0.32650        0.28199        0.31675        0.31984        0.36590        0.31702        0.31308        0.30080        0.28459        0.36910        0.36036        0.32201        0.32028        0.30086        0.30079        0.33712        0.33355        0.28150        0.32116        0.27541        0.26397        0.27579        0.30526        0.32096        0.32673        0.23489        0.28065        0.33975        0.33077        0.33778        0.33301        0.30911        0.31452        0.32685        0.31433        0.25920        0.27508        0.28553        0.33386        0.32446        0.33786        0.34627        0.34220        0.33925        0.32580        0.32209        0.30710        0.31316        0.31089        0.25758        0.27953        0.32376        0.33789        0.24313        0.19898        0.20769        0.30148        0.30920        0.29471        0.28077        0.27310        0.27893        0.23862        0.27140        0.26987        0.27600        0.25497        0.25429        0.25328        0.20545        0.25014        0.32163        0.36295        0.26589        0.23538        0.20685        0.18463        0.27638        0.28504        0.38623        0.26933        0.24131        0.30036        0.36409        0.17514       -0.01857       -0.11229       -0.54544       -0.75735
3.373390 3.335765 3.298353 3.261154 3.224168 3.187396 3.150836 3.114490 3.078357 3.042437 3.006729 2.971235 2.935954 2.900887 2.866032 2.831390 2.796962 2.762747 2.728744 2.694955 2.661379 2.628016 2.594866 2.561929 2.529206 2.496695 2.464398 2.432313 2.400442 2.368784 2.337339 2.306107 2.275088 2.244282 2.213689 2.183310 2.153143 2.123190 2.093450 2.063923 2.034608 2.005508 1.976620 1.947945 1.919483 1.891235 1.863199 1.835377 1.807768 1.780371 1.753188 1.652580 1.963634 1.699783 1.080579 1.148654 0.364836 0.900103 0.528366 0.640892 0.920769 0.666507 0.658463 0.754237 0.689094 0.641477 0.461201 0.342374 0.184409 -0.006244 -0.002417 0.110816 0.402518 -0.033977 0.161794 0.042651 0.148493 -0.060056 0.259257 0.180569 0.097526 0.298410 0.498241 0.289076 0.454911 0.362059 0.774330 0.639300 0.855210 0.870399 0.809499 1.032920 0.933392 1.238618 1.065296 1.106977 0.987850 1.009455 0.953337 0.891924 0.932886 0.759244 0.727589 0.654232 0.618906 0.459911 0.557112 0.446484 0.274615 0.201652 0.138502 0.179773 0.218085 0.155981 0.183534 0.363419 0.345209 0.360577 0.463050 0.534317 0.531307 0.413705 0.800462 0.811180 0.620614 0.672205 0.755708 0.533113 0.416546 0.495779 0.198418 0.248511 0.101213 0.159201 -0.016823 -0.037553 -0.109385 -0.104009 0.103526 -0.002984 0.126570 0.189382 0.160248 0.308769 0.309389 0.385768 0.342173 0.470577 0.318817 0.264641 0.242455 0.145764 0.086840 0.054583 0.024162 0.003516 -0.061518 -0.097186 -0.098500 -0.064789 -0.061407 0.139481 0.313211 0.200065 0.205619 0.269773 0.336217 0.241136 0.344184 0.282076 0.152160 0.132677 0.273375 0.004333 0.043546 0.027343 0.056935 -0.014486 0.086327 -0.008007 0.138449 -0.006164 0.228101 0.265315 0.189114 0.253125 0.201266 0.152704 0.041424 0.076516 0.078068 0.024518 -0.007695 0.039639 -0.068021 -0.012489 0.027047 0.116486 0.281294 0.141248 0.130941 0.216933 0.142167 0.139765 0.047073 0.067991 0.064046 -0.090419 -0.008266 0.035986 0.148923 0.117606 0.038130 0.085415 0.178709 0.163720 0.280219 0.113365 0.097598 0.042619 0.012132 0.059893 0.032629 0.093649 0.164821 0.118322 0.085190 0.138536 0.191354 0.018526 0.076924 0.056854 0.136669 0.068277 -0.008932 0.006737 -0.054148 0.015016 0.048787 0.029989 0.024408 -0.011914 0.051291 0.018689 0.013499 -0.039538 -0.055159 -0.036485 -0.028707 0.062381 -0.026541 -0.008660 0.033831 0.039394 0.024802 0.051494 -0.034492 -0.030436 0.001918 0.026097 0.019413 0.020013 -0.030585 -0.007863 0.081127 0.023274 0.012113 0.165710 -0.045034 -0.067531 0.023489 0.012038 0.007287 0.032471 -0.040448 0.021206 -0.078130 0.027439 0.025895 0.094723 -0.027612 -0.016144 -0.041360 -0.034528 0.089373 0.069947 -0.035166 0.019501 -0.050493 -0.033973 0.025811 -0.003097 -0.072534 0.031116 -0.112123 -0.091760 -0.051733 -0.061061 0.034840 -0.072313 -0.218600 -0.024354 0.057210 -0.026813 -0.022624 0.038187 -0.054269 -0.024915 -0.029295 -0.056457 -0.129313 -0.129500 -0.121847 0.027644 -0.010699 -0.028223 0.019628 0.035937 -0.094370 0.027312 -0.005879 -0.086536 -0.014478 -0.009881 -0.130160 -0.056092 0.002432 0.072118 -0.087483 -0.265420 -0.108895 0.113515 0.011112 -0.036427 0.048087 0.025680 0.015212 -0.042804 -0.048104 0.037254 0.024037 0.014291 0.011515 0.044131 -0.132759 0.063535 0.239498 0.180258 0.060518 0.071788 -0.097302 0.035327 0.067082 0.099396 0.388730 0.426336 0.417001 0.537769 0.762422 0.327926 -0.144420 -0.184169 -1.297267
0.072396 0.072907 0.074441 0.076996 0.080573 0.085170 0.090786 0.097419 0.105068 0.113728 0.123398 0.134072 0.145744 0.158408 0.172056 0.186679 0.202264 0.218798 0.236266 0.254650 0.273927 0.294076 0.315067 0.336871 0.359452 0.382772 0.406787 0.431450 0.456706 0.482497 0.508759 0.535422 0.562410 0.589639 0.617022 0.644460 0.671853 0.699089 0.726052 0.752617 0.778655 0.804025 0.828584 0.852181 0.874659 0.895853 0.915596 0.933715 0.950034 0.964372 0.976549 0.986381 0.993686 0.998282 0.999993 0.998644 0.994068 0.986105 0.974607 0.959435 0.940467 0.917593 0.890727 0.859798 0.824762 0.785600 0.742317 0.694953 0.643577 0.588292 0.529238 0.466593 0.400573 0.331435 0.259477 0.185040 0.108506 0.030297 0.049121 0.129247 0.209539 0.289421 0.368286 0.445501 0.520407 0.592329 0.660579 0.724466 0.783298 0.836394 0.883094 0.922761 0.954798 0.978652 0.993829 0.999898 0.996507 0.983388 0.960369 0.927381 0.884470 0.831797 0.769649 0.698445 0.618731 0.531192 0.436641 0.336023 0.230407 0.120978 0.009029 0.104053 0.216802 0.327690 0.435149 0.537589 0.633424 0.721102 0.799125 0.866081 0.920675 0.961752 0.988330 0.999626 0.995079 0.974376 0.937468 0.884588 0.816264 0.733320 0.636880 0.528364 0.409473 0.282168 0.148653 0.011333 0.127219 0.264308 0.397173 0.523034 0.639160 0.742923 0.831874 0.903792 0.956758 0.989211 0.999998 0.988426 0.954298 0.897946 0.820240 0.722601 0.606983 0.475854 0.332154 0.179239 0.020812 0.139158 0.296533 0.447112 0.586745 0.711449 0.817529 0.901698 0.961189 0.993858 0.998274 0.973795 0.920619 0.839812 0.733316 0.603921 0.455214 0.291493 0.117663 0.060901 0.238517 0.409371 0.567704 0.708020 0.825277 0.915084 0.973888 0.999120 0.989339 0.944320 0.865110 0.754042 0.614690 0.451785 0.271080 0.079156 0.116796 0.309237 0.490569 0.653439 0.791049 0.897448 0.967816 0.998704 0.988229 0.936210 0.844233 0.715652 0.555491 0.370295 0.167874 0.042991 0.252931 0.452382 0.632044 0.783306 0.898688 0.972235 0.999850 0.979560 0.911683 0.798880 0.646111 0.460448 0.250789 0.027464 0.198265 0.414749 0.610562 0.775116 0.899250 0.975774 0.999920 0.969682 0.886012 0.752858 0.577031 0.367908 0.136971 0.102794 0.337614 0.553708 0.738110 0.879469 0.968777 0.999992 0.970490 0.881333 0.737303 0.546719 0.321000 0.074035 0.178639 0.420806 0.636605 0.811591 0.933723 0.994250 0.988384 0.915742 0.780484 0.591170 0.360267 0.103389 0.161723 0.416385 0.642322 0.822962 0.944711 0.998019 0.978196 0.885890 0.727178 0.513253 0.259703 0.014568 0.288708 0.541490 0.752971 0.906090 0.988098 0.991692 0.915739 0.765526 0.552493 0.293437 0.009261 0.276664 0.540416 0.759514 0.914884 0.992581 0.985104 0.892222 0.721167 0.486168 0.207374 0.090816 0.381855 0.639376 0.839627 0.963699 0.999398 0.942528 0.797482 0.577019 0.301261 0.004070 0.309986 0.586974 0.807838 0.950443 1.000000 0.950701 0.806511 0.580987 0.296123 0.019703 0.334492 0.615838 0.834299 0.966518 0.997825 0.923976 0.751834 0.498876 0.191548 0.137411 0.452403 0.718812 0.906853 0.994969 0.972431 0.840769 0.613861 0.316611 0.017657 0.350864 0.644493 0.864042 0.983186 0.987020 0.874079 0.656785 0.360251 0.019498 0.324577 0.630078 0.859231 0.983139 0.985539 0.865095 0.635863 0.325828 0.026374 0.376175 0.678691 0.894503 0.994892 0.965803 0.809976 0.546911 0.210619 0.154662 0.500168 0.779168 0.953275
1.000000 1.000000 1.000000 1.000000 1.000000 1.000000 1.000000 1.000000 1.000000 1.000000 1.000000 1.000000 1.000000 1.000000 1.000000 1.000000 1.000000 1.000000 1.000000 1.000000 1.000000 1.000000 1.000000 1.000000 1.000000 1.000000 1.000000 1.000000 1.000000 1.000000 1.000000 1.000000 1.000000 1.000000 1.000000 1.000000 1.000000 1.000000 1.000000 1.000000 1.000000 1.000000 1.000000 1.000000 1.000000 1.000000 1.000000 1.000000 1.000000 1.000000 1.000000 1.000000 0.830885 0.830885 0.830885 0.807024 0.807024 0.807024 0.807024 0.807024 0.807024 0.807024 0.807024 0.807024 0.807024 0.807024 0.807024 0.807024 0.807024 0.807024 0.807024 0.807024 0.807024 0.807024 0.807024 0.807024 0.807024 0.807024 0.807024 0.807024 0.807024 0.807024 0.807024 0.807024 0.807024 0.807024 0.807024 0.807024 0.807024 0.807024 0.807024 0.807024 0.807024 0.807024 0.807024 0.807024 0.854345 0.860941 0.866145 0.869177 0.869429 0.866349 0.865195 0.864741 0.864143 0.865372 0.871704 0.897027 0.914287 0.917115 0.928391 0.929867 0.934748 0.937379 0.957109 0.958609 0.960011 0.959140 0.960087 0.962050 0.968551 0.968692 0.968782 0.969116 0.969274 0.969851 0.969577 0.968820 0.967831 0.967152 0.964668 0.964572 0.965069 0.965915 0.966242 0.960921 0.961162 0.961393 0.963321 0.961808 0.952169 0.946484 0.942712 0.940911 0.921467 0.922535 0.921241 0.917032 0.908731 0.908766 0.898396 0.899526 0.898913 0.892765 0.891535 0.888371 0.884922 0.875166 0.873913 0.872605 0.874557 0.878714 0.881557 0.867245 0.851466 0.834082 0.817923 0.802667 0.803653 0.806002 0.802683 0.806458 0.809347 0.808004 0.806494 0.800834 0.786768 0.794535 0.792910 0.789315 0.783023 0.782219 0.768615 0.762495 0.756550 0.732632 0.715251 0.701844 0.705431 0.696833 0.694169 0.696833 0.704745 0.707151 0.709677 0.703322 0.700375 0.688375 0.664131 0.669883 0.680645 0.674569 0.663772 0.660610 0.638042 0.664977 0.670083 0.689025 0.697548 0.698019 0.697486 0.678750 0.651269 0.626402 0.627775 0.611990 0.622987 0.629404 0.627063 0.614745 0.624425 0.635014 0.648233 0.607998 0.605403 0.588843 0.587584 0.583799 0.581577 0.549588 0.528833 0.517123 0.492423 0.473237 0.488160 0.479624 0.476474 0.500587 0.464108 0.462302 0.459679 0.460558 0.460238 0.450293 0.426663 0.429012 0.429178 0.412368 0.390250 0.333567 0.321405 0.325129 0.327504 0.330299 0.343380 0.358929 0.319847 0.296215 0.297849 0.317645 0.313269 0.325125 0.330512 0.301864 0.299498 0.205244 0.203680 0.225633 0.232632 0.242466 0.222778 0.242725 0.243393 0.222089 0.197125 0.130121 0.080472 0.060712 0.085985 0.096744 0.109160 0.095312 0.071157 0.073723 0.084633 0.039642 0.025842 0.018190 0.018571 0.031737 0.059238 0.056715 0.053954 0.067800 0.085256 0.051697 0.047183 0.052919 0.077352 0.060237 0.042468 0.016689 0.007590 -0.011179 -0.018541 0.003743 0.016196 0.024872 0.058820 0.028627 -0.009977 -0.034087 -0.025404 -0.046465 -0.051207 -0.078277 -0.065107 -0.086151 -0.066751 -0.048720 0.015518 0.019449 0.020975 -0.005739 0.022321 -0.021761 -0.032054 -0.022224 -0.040899 -0.028423 0.021105 0.033879 0.039082 -0.012652 -0.027231 -0.027231 -0.027231 -0.049542 -0.049542 -0.049542 -0.049542 -0.049542 -0.049542 -0.049542 -0.049542 -0.049542 -0.060942 -0.060942 -0.060942 -0.060942 -0.060942 -0.060942 -0.060942 -0.060942 -0.060942 -0.060942 -0.060942 -0.060942 -0.060942 -0.060942 -0.060942 -0.060942 -0.060942
0.000000 0.000000 0.000000 0.000000 0.000000 0.000000 0.000000 0.000000 0.000000 0.000000 0.000000 0.000000 0.000000 0.000000 0.000000 0.000000 0.000000 0.000000 0.000000 0.000000 0.000000 0.000000 0.000000 0.000000 0.000000 0.000000 0.000000 0.000000 0.000000 0.000000 0.000000 0.000000 0.000000 0.000000 0.000000 0.000000 0.000000 0.000000 0.000000 0.000000 0.000000 0.000000 0.000000 0.000000 0.000000 0.000000 0.000000 0.000000 0.000000 0.000000 0.000000 0.000000 0.180334 0.180334 0.180334 0.199007 0.199007 0.199007 0.199007 0.199007 0.199007 0.199007 0.199007 0.199007 0.199007 0.199007 0.199007 0.199007 0.199007 0.199007 0.199007 0.199007 0.199007 0.199007 0.199007 0.199007 0.199007 0.199007 0.199007 0.199007 0.199007 0.199007 0.199007 0.199007 0.199007 0.199007 0.199007 0.199007 0.199007 0.199007 0.199007 0.199007 0.199007 0.199007 0.199007 0.199007 0.230940 0.230940 0.230940 0.230940 0.230940 0.230940 0.230940 0.230940 0.230940 0.230940 0.230940 0.230940 0.230940 0.230940 0.230940 0.230940 0.230940 0.230940 0.230940 0.230940 0.230940 0.230940 0.230940 0.230940 0.230940 0.230940 0.230940 0.230940 0.248069 0.248069 0.248069 0.248069 0.248069 0.248069 0.248069 0.248069 0.248069 0.248069 0.248069 0.248069 0.248069 0.248069 0.248069 0.248069 0.248069 0.248069 0.248069 0.248069 0.248069 0.248069 0.251976 0.251976 0.251976 0.251976 0.251976 0.251976 0.251976 0.251976 0.251976 0.251976 0.251976 0.251976 0.251976 0.251976 0.251976 0.251976 0.251976 0.251976 0.251976 0.251976 0.256074 0.256074 0.256074 0.256074 0.256074 0.256074 0.256074 0.256074 0.256074 0.256074 0.256074 0.256074 0.256074 0.256074 0.256074 0.256074 0.256074 0.256074 0.264906 0.264906 0.264906 0.264906 0.264906 0.264906 0.264906 0.264906 0.264906 0.264906 0.264906 0.264906 0.264906 0.264906 0.264906 0.264906 0.264906 0.264906 0.264906 0.264906 0.264906 0.264906 0.264906 0.264906 0.264906 0.264906 0.264906 0.264906 0.264906 0.264906 0.264906 0.274721 0.274721 0.274721 0.274721 0.274721 0.274721 0.274721 0.274721 0.274721 0.274721 0.274721 0.274721 0.274721 0.256074 0.256074 0.256074 0.256074 0.256074 0.256074 0.256074 0.256074 0.256074 0.256074 0.256074 0.256074 0.256074 0.256074 0.269680 0.269680 0.269680 0.269680 0.269680 0.269680 0.269680 0.269680 0.269680 0.269680 0.269680 0.269680 0.264906 0.264906 0.264906 0.264906 0.264906 0.264906 0.264906 0.264906 0.264906 0.264906 0.264906 0.264906 0.269680 0.269680 0.269680 0.269680 0.269680 0.269680 0.269680 0.269680 0.269680 0.269680 0.269680 0.264906 0.264906 0.264906 0.264906 0.264906 0.264906 0.264906 0.264906 0.264906 0.264906 0.264906 0.269680 0.269680 0.269680 0.269680 0.269680 0.269680 0.269680 0.269680 0.269680 0.269680 0.251976 0.251976 0.251976 0.251976 0.251976 0.251976 0.251976 0.251976 0.251976 0.251976 0.251976 0.269680 0.269680 0.269680 0.269680 0.269680 0.269680 0.269680 0.269680 0.269680 0.256074 0.256074 0.256074 0.256074 0.256074 0.256074 0.256074 0.256074 0.256074 0.256074 0.260378 0.260378 0.260378 0.260378 0.260378 0.260378 0.260378 0.260378 0.260378 0.256074 0.256074 0.256074 0.256074 0.256074 0.256074 0.256074 0.256074 0.256074 0.251976 0.251976 0.251976 0.251976 0.251976 0.251976 0.251976 0.251976 0.251976 0.251976 0.251976 0.251976 0.251976 0.251976 0.251976 0.251976 0.251976
