# Output from CTFFind version 4.1.9, run on 2019-11-02 17:47:03
# Input file: stack16_bm3d_averaged_1_1.0_0_1250_half.mrc ; Number of micrographs: 1
# Pixel size: 3.000 Angstroms ; acceleration voltage: 300.0 keV ; spherical aberration: 0.00 mm ; amplitude contrast: 0.07
# Box size: 512 pixels ; min. res.: 30.0 Angstroms ; max. res.: 5.0 Angstroms ; min. def.: 5000.0 um; max. def. 50000.0 um; num. frames averaged: 1
# 6 lines per micrograph: #1 - spatial frequency (1/Angstroms); #2 - 1D rotational average of spectrum (assuming no astigmatism); #3 - 1D rotational average of spectrum; #4 - CTF fit; #5 - cross-correlation between spectrum and CTF fit; #6 - 2sigma of expected cross correlation of noise
0.000000 0.000651 0.001302 0.001953 0.002604 0.003255 0.003906 0.004557 0.005208 0.005859 0.006510 0.007161 0.007812 0.008464 0.009115 0.009766 0.010417 0.011068 0.011719 0.012370 0.013021 0.013672 0.014323 0.014974 0.015625 0.016276 0.016927 0.017578 0.018229 0.018880 0.019531 0.020182 0.020833 0.021484 0.022135 0.022786 0.023438 0.024089 0.024740 0.025391 0.026042 0.026693 0.027344 0.027995 0.028646 0.029297 0.029948 0.030599 0.031250 0.031901 0.032552 0.033203 0.033854 0.034505 0.035156 0.035807 0.036458 0.037109 0.037760 0.038411 0.039062 0.039714 0.040365 0.041016 0.041667 0.042318 0.042969 0.043620 0.044271 0.044922 0.045573 0.046224 0.046875 0.047526 0.048177 0.048828 0.049479 0.050130 0.050781 0.051432 0.052083 0.052734 0.053385 0.054036 0.054688 0.055339 0.055990 0.056641 0.057292 0.057943 0.058594 0.059245 0.059896 0.060547 0.061198 0.061849 0.062500 0.063151 0.063802 0.064453 0.065104 0.065755 0.066406 0.067057 0.067708 0.068359 0.069010 0.069661 0.070312 0.070964 0.071615 0.072266 0.072917 0.073568 0.074219 0.074870 0.075521 0.076172 0.076823 0.077474 0.078125 0.078776 0.079427 0.080078 0.080729 0.081380 0.082031 0.082682 0.083333 0.083984 0.084635 0.085286 0.085938 0.086589 0.087240 0.087891 0.088542 0.089193 0.089844 0.090495 0.091146 0.091797 0.092448 0.093099 0.093750 0.094401 0.095052 0.095703 0.096354 0.097005 0.097656 0.098307 0.098958 0.099609 0.100260 0.100911 0.101562 0.102214 0.102865 0.103516 0.104167 0.104818 0.105469 0.106120 0.106771 0.107422 0.108073 0.108724 0.109375 0.110026 0.110677 0.111328 0.111979 0.112630 0.113281 0.113932 0.114583 0.115234 0.115885 0.116536 0.117188 0.117839 0.118490 0.119141 0.119792 0.120443 0.121094 0.121745 0.122396 0.123047 0.123698 0.124349 0.125000 0.125651 0.126302 0.126953 0.127604 0.128255 0.128906 0.129557 0.130208 0.130859 0.131510 0.132161 0.132812 0.133464 0.134115 0.134766 0.135417 0.136068 0.136719 0.137370 0.138021 0.138672 0.139323 0.139974 0.140625 0.141276 0.141927 0.142578 0.143229 0.143880 0.144531 0.145182 0.145833 0.146484 0.147135 0.147786 0.148438 0.149089 0.149740 0.150391 0.151042 0.151693 0.152344 0.152995 0.153646 0.154297 0.154948 0.155599 0.156250 0.156901 0.157552 0.158203 0.158854 0.159505 0.160156 0.160807 0.161458 0.162109 0.162760 0.163411 0.164062 0.164714 0.165365 0.166016 0.166667 0.167318 0.167969 0.168620 0.169271 0.169922 0.170573 0.171224 0.171875 0.172526 0.173177 0.173828 0.174479 0.175130 0.175781 0.176432 0.177083 0.177734 0.178385 0.179036 0.179688 0.180339 0.180990 0.181641 0.182292 0.182943 0.183594 0.184245 0.184896 0.185547 0.186198 0.186849 0.187500 0.188151 0.188802 0.189453 0.190104 0.190755 0.191406 0.192057 0.192708 0.193359 0.194010 0.194661 0.195312 0.195964 0.196615 0.197266 0.197917 0.198568 0.199219 0.199870 0.200521 0.201172 0.201823 0.202474 0.203125 0.203776 0.204427 0.205078 0.205729 0.206380 0.207031 0.207682 0.208333 0.208984 0.209635 0.210286 0.210938 0.211589 0.212240 0.212891 0.213542 0.214193 0.214844 0.215495 0.216146 0.216797 0.217448 0.218099 0.218750 0.219401 0.220052 0.220703 0.221354 0.222005 0.222656 0.223307 0.223958 0.224609 0.225260 0.225911 0.226562 0.227214 0.227865 0.228516 0.229167 0.229818 0.230469 0.231120 0.231771 0.232422 0.233073 0.233724 0.234375 0.235026 0.235677
       0.34286        0.34286        0.34286        0.34286        0.34286        0.34286        0.34286        0.34286        0.34286        0.34286        0.34286        0.34286        0.34286        0.34286        0.34286        0.34286        0.34286        0.34286        0.34286        0.34286        0.34286        0.34286        0.34286        0.34286        0.34286        0.34286        0.34286        0.34286        0.34286        0.34286        0.34286        0.34286        0.34286        0.34286        0.34286        0.34286        0.34286        0.34286        0.34286        0.34286        0.34286        0.34286        0.34286        0.34286        0.34286        0.34286        0.34286        0.34286        0.34286        0.34286        0.34286        0.48902        0.70226        0.45566       -0.11066       -0.41326       -0.57150       -0.66112       -0.74497       -0.76173       -0.86919       -0.91429       -0.75987       -0.92506       -0.87180       -1.02472       -1.09648       -0.98889       -0.96183       -0.88384       -0.86013       -0.75021       -0.64126       -0.50034       -0.42338       -0.21888       -0.11793       -0.02335        0.20284        0.24326        0.30867        0.38491        0.43813        0.51574        0.58046        0.59635        0.59098        0.50117        0.54641        0.48559        0.39205        0.32544        0.20661        0.17231        0.10123       -0.06093       -0.11218       -0.09162        0.01060       -0.01760        0.01208        0.02846        0.20871        0.21861        0.39020        0.45685        0.56117        0.70062        0.76154        0.73031        0.70627        0.70268        0.58405        0.54254        0.39968        0.27385        0.19458        0.14510        0.06671        0.02470        0.02318        0.06164        0.07873        0.27303        0.41793        0.50513        0.58806        0.63839        0.70421        0.65993        0.65167        0.67155        0.60914        0.48091        0.28437        0.23526        0.20492        0.12996        0.04550        0.09237        0.11970        0.25044        0.34128        0.41471        0.50144        0.53958        0.66160        0.60907        0.55421        0.50885        0.36400        0.20813        0.21082        0.15299        0.11576        0.12057        0.21441        0.25374        0.36011        0.44285        0.43885        0.56409        0.51096        0.44927        0.45472        0.38286        0.32336        0.27604        0.21666        0.23581        0.21143        0.20986        0.32294        0.45025        0.48704        0.48113        0.55150        0.49644        0.45565        0.39645        0.29430        0.22520        0.23262        0.24494        0.26632        0.27253        0.32551        0.44250        0.49938        0.48706        0.45915        0.41804        0.38843        0.36230        0.24987        0.22636        0.24718        0.29351        0.35452        0.36284        0.39221        0.40936        0.44297        0.37158        0.34786        0.31412        0.30611        0.26698        0.25833        0.30977        0.34641        0.41558        0.41727        0.39673        0.39342        0.40609        0.34811        0.28670        0.29207        0.27805        0.31037        0.35924        0.36735        0.41542        0.35945        0.36594        0.38916        0.34516        0.31457        0.28140        0.29420        0.33930        0.32997        0.32483        0.37493        0.39500        0.33427        0.35201        0.29710        0.30820        0.28809        0.28149        0.30150        0.33080        0.38373        0.36594        0.34752        0.32798        0.28555        0.27682        0.29717        0.28296        0.31405        0.36913        0.39468        0.33696        0.31737        0.31081        0.29886        0.28489        0.27850        0.29957        0.34067        0.33535        0.34399        0.31829        0.34822        0.32255        0.28761        0.31443        0.32187        0.33434        0.33723        0.31875        0.31414        0.30429        0.32949        0.31455        0.33806        0.39005        0.33607        0.36139        0.31954        0.31121        0.28931        0.31029        0.29034        0.31005        0.31806        0.35187        0.36196        0.31373        0.32085        0.31435        0.29564        0.29232        0.28963        0.33181        0.34209        0.35663        0.33645        0.32332        0.26020        0.26600        0.31290        0.35031        0.31803        0.29727        0.28308        0.28786        0.32696        0.30884        0.30633        0.33363        0.34174        0.31299        0.24286        0.28761        0.28606        0.28668        0.32126        0.32397        0.34739        0.34216        0.28083        0.26812        0.29503        0.26793        0.29102        0.27525        0.24748        0.26335        0.25213        0.27841        0.28352        0.27705        0.26654        0.31763        0.32614        0.31351        0.28582        0.30165        0.24285        0.27067        0.25663        0.33129        0.34690        0.23023        0.25488        0.27700        0.24637        0.24746        0.30246        0.23217        0.14194        0.17382        0.23965        0.27181        0.22725        0.13997        0.03512       -0.41694       -0.76331
3.061805 3.023739 2.985919 2.948342 2.911011 2.873924 2.837081 2.800483 2.764130 2.728021 2.692157 2.656538 2.621163 2.586033 2.551148 2.516507 2.482110 2.447959 2.414052 2.380389 2.346971 2.313798 2.280870 2.248186 2.215746 2.183551 2.151601 2.119896 2.088435 2.057219 2.026247 1.995520 1.965037 1.934799 1.904806 1.875057 1.845553 1.816294 1.787279 1.758509 1.729983 1.701703 1.673666 1.645874 1.618327 1.591025 1.563967 1.537154 1.510585 1.484261 1.458181 1.515763 1.703467 1.616227 0.968886 0.684394 0.478127 0.432806 0.322834 0.266290 0.201249 0.021712 0.197997 0.082014 -0.006352 -0.058573 -0.198078 -0.151196 -0.090337 -0.091814 -0.096088 0.011125 0.032392 0.233814 0.150750 0.365695 0.446548 0.478096 0.716746 0.701000 0.710351 0.839783 0.822975 0.854192 0.924081 0.894836 0.940499 0.752999 0.837910 0.841261 0.623342 0.609736 0.458297 0.437848 0.385228 0.210428 0.120223 0.100692 0.207205 0.145415 0.195780 0.111876 0.311703 0.288113 0.458226 0.415469 0.581238 0.644675 0.765996 0.695912 0.663565 0.668956 0.532562 0.505924 0.368750 0.294233 0.118719 0.147324 0.001627 -0.011477 -0.038074 -0.028867 -0.001484 0.033982 0.276232 0.331667 0.387803 0.396115 0.468623 0.520743 0.470322 0.506680 0.400525 0.390664 0.154842 0.068383 0.073448 -0.002381 -0.123992 -0.042841 -0.111766 0.016887 0.137137 0.156474 0.254150 0.257703 0.383163 0.463211 0.353907 0.390542 0.283174 0.126016 0.048912 0.051752 0.015225 0.003259 0.006861 0.108654 0.128846 0.265380 0.237398 0.305136 0.369495 0.241485 0.245125 0.219775 0.131647 0.082556 0.051688 0.025897 0.040032 -0.013643 0.028406 0.186175 0.224198 0.249424 0.282331 0.231883 0.240490 0.148546 0.107730 -0.021791 -0.015738 -0.005712 0.017055 0.009079 0.028172 0.105195 0.189638 0.202898 0.220019 0.138280 0.147155 0.080274 0.058531 -0.059058 -0.014989 -0.005252 0.054841 0.066351 0.077695 0.155102 0.089907 0.163500 0.068783 0.053518 0.046995 0.028714 0.002660 0.008754 0.054442 0.085318 0.132020 0.141129 0.069776 0.130219 0.099336 0.016080 0.008605 0.006342 -0.003598 0.057246 0.060686 0.099962 0.098768 0.068014 0.070463 0.080716 0.033928 0.013322 -0.011761 0.010399 0.059957 0.024769 0.038825 0.082086 0.084156 0.054892 0.033370 0.008976 0.014770 -0.006411 -0.012483 0.014502 0.053044 0.105065 0.060199 0.058548 0.039375 -0.013537 -0.001133 0.015308 0.011746 0.027744 0.105428 0.062230 0.021995 0.043895 0.003010 0.027180 -0.010336 -0.003560 0.023283 0.063800 0.032363 0.045972 0.031412 0.054822 0.025153 -0.005331 0.028733 0.042599 0.041399 0.037918 0.023991 0.001039 -0.008161 0.028914 0.009912 0.047597 0.076406 0.044015 0.025673 0.014328 -0.000407 -0.005300 0.008435 0.002375 0.012944 -0.003252 0.081018 0.053365 0.031841 0.037559 0.003889 0.011184 0.007723 -0.005135 0.052674 0.061794 0.084669 0.049723 0.049259 -0.025132 0.012885 0.035168 0.075121 0.034044 0.032883 0.004162 0.006397 0.052103 0.048014 0.034445 0.059035 0.071514 0.055318 -0.024124 0.016915 0.044507 0.020971 0.043225 0.075259 0.077657 0.067644 0.014980 0.005141 0.015075 -0.002755 0.021253 -0.018507 -0.027257 -0.015396 -0.044378 -0.002601 -0.004866 0.006858 -0.075162 0.003877 0.010630 -0.002936 -0.039988 0.022346 -0.096539 -0.021838 -0.043294 0.028968 0.067565 -0.109415 -0.021346 0.037405 0.010527 -0.039675 0.046236 0.030500 -0.008247 -0.042377 0.066377 0.236846 0.200222 0.098704 0.033974 -0.671000
0.072396 0.073046 0.074995 0.078242 0.082788 0.088629 0.095764 0.104191 0.113904 0.124899 0.137170 0.150707 0.165502 0.181540 0.198808 0.217286 0.236952 0.257781 0.279742 0.302800 0.326913 0.352035 0.378112 0.405084 0.432883 0.461432 0.490647 0.520433 0.550687 0.581295 0.612132 0.643064 0.673943 0.704612 0.734902 0.764633 0.793613 0.821638 0.848496 0.873963 0.897806 0.919783 0.939647 0.957143 0.972011 0.983991 0.992821 0.998242 0.999997 0.997838 0.991528 0.980843 0.965575 0.945538 0.920570 0.890540 0.855348 0.814930 0.769267 0.718383 0.662352 0.601302 0.535418 0.464946 0.390193 0.311532 0.229405 0.144319 0.056850 0.032360 0.122607 0.213121 0.303082 0.391612 0.477797 0.560682 0.639291 0.712634 0.779720 0.839572 0.891241 0.933823 0.966478 0.988445 0.999059 0.997775 0.984180 0.958012 0.919177 0.867762 0.804048 0.728523 0.641881 0.545037 0.439116 0.325454 0.205591 0.081250 0.045675 0.173147 0.299015 0.421047 0.536970 0.644513 0.741453 0.825668 0.895181 0.948223 0.983276 0.999127 0.994915 0.970173 0.924862 0.859402 0.774689 0.672102 0.553499 0.421207 0.277977 0.126953 0.028394 0.184334 0.336967 0.482315 0.616431 0.735503 0.835982 0.914688 0.968926 0.996597 0.996287 0.967354 0.909984 0.825233 0.715039 0.582209 0.430370 0.263897 0.087801 0.092402 0.270859 0.441563 0.598555 0.736145 0.849121 0.932973 0.984086 0.999925 0.979182 0.921884 0.829457 0.704737 0.551921 0.376465 0.184915 0.015308 0.216185 0.409410 0.586725 0.740300 0.863074 0.949122 0.993962 0.994826 0.950861 0.863254 0.735262 0.572150 0.381015 0.170521 0.049458 0.268292 0.475088 0.659241 0.810999 0.921998 0.985765 0.998138 0.957587 0.865398 0.725719 0.545436 0.333900 0.102481 0.135994 0.367943 0.579798 0.758799 0.893804 0.976018 0.999623 0.962250 0.865250 0.713755 0.516483 0.285309 0.034609 0.219594 0.460640 0.672320 0.839988 0.951627 0.998761 0.977178 0.887369 0.734661 0.529004 0.284401 0.018035 0.250904 0.502569 0.717929 0.880247 0.976428 0.998164 0.942728 0.813385 0.619320 0.375095 0.099654 0.185087 0.455955 0.690394 0.868379 0.974192 0.997900 0.936384 0.793830 0.581585 0.317383 0.023955 0.272850 0.546326 0.771305 0.926541 0.996789 0.974420 0.860372 0.664307 0.403948 0.103604 0.208023 0.500518 0.744740 0.915760 0.995505 0.974792 0.854520 0.645873 0.369435 0.053307 0.269658 0.565231 0.801434 0.952081 0.999785 0.938118 0.772628 0.520536 0.209132 0.127065 0.450041 0.722570 0.912568 0.996962 0.964661 0.818181 0.573705 0.259500 0.087208 0.424530 0.710966 0.910546 0.997469 0.959612 0.800411 0.538821 0.207279 0.152164 0.493063 0.770587 0.947467 0.999152 0.917421 0.711889 0.409142 0.049522 0.318104 0.642921 0.879203 0.992877 0.966631 0.802784 0.523418 0.167665 0.213579 0.564837 0.834121 0.980726 0.981575 0.835106 0.562008 0.202581 0.188983 0.552658 0.831762 0.981911 0.978273 0.819950 0.530665 0.155511 0.245854 0.608561 0.873035 0.994909 0.952697 0.751896 0.424647 0.024903 0.380241 0.721748 0.940431 0.997411 0.881315 0.610871 0.232237 0.188574 0.577042 0.863310 0.994903 0.946596 0.725600 0.370926 0.053181 0.468609 0.797730 0.977998 0.974062 0.785075 0.445553 0.019461 0.411559 0.763750 0.967548 0.981610 0.801546 0.461544 0.028285 0.411831 0.769794 0.972064 0.975956 0.779020 0.420354 0.026725 0.469387 0.814444 0.988081 0.951957 0.712099 0.318456 0.145074 0.578249
1.000000 1.000000 1.000000 1.000000 1.000000 1.000000 1.000000 1.000000 1.000000 1.000000 1.000000 1.000000 1.000000 1.000000 1.000000 1.000000 1.000000 1.000000 1.000000 1.000000 1.000000 1.000000 1.000000 1.000000 1.000000 1.000000 1.000000 1.000000 1.000000 1.000000 1.000000 1.000000 1.000000 1.000000 1.000000 1.000000 1.000000 1.000000 1.000000 1.000000 1.000000 1.000000 1.000000 1.000000 1.000000 1.000000 1.000000 1.000000 1.000000 1.000000 1.000000 1.000000 0.933066 0.933066 0.933066 0.933066 0.933066 0.933066 0.933066 0.933066 0.933066 0.933066 0.933066 0.933066 0.933066 0.933066 0.933066 0.933066 0.933066 0.933066 0.933066 0.933066 0.933066 0.933066 0.933066 0.933066 0.933066 0.933066 0.933066 0.933066 0.933066 0.933066 0.933066 0.933066 0.933066 0.922398 0.923885 0.926859 0.927931 0.927891 0.927434 0.927117 0.927336 0.929052 0.931373 0.947986 0.950166 0.950737 0.952028 0.952269 0.954787 0.953037 0.952858 0.963413 0.962231 0.962943 0.955998 0.957575 0.956663 0.955737 0.956241 0.956484 0.954554 0.952410 0.950724 0.950087 0.949713 0.951480 0.951956 0.951922 0.953393 0.953359 0.953083 0.949729 0.948300 0.949769 0.951806 0.950953 0.956662 0.956493 0.964533 0.965325 0.963920 0.963822 0.964020 0.964216 0.954855 0.948724 0.943438 0.931676 0.922566 0.920387 0.923248 0.925020 0.923951 0.919352 0.918304 0.915862 0.910709 0.909860 0.909550 0.911104 0.907166 0.903601 0.887171 0.886542 0.889102 0.888664 0.886503 0.878079 0.873239 0.873926 0.877060 0.874551 0.871160 0.887168 0.882306 0.887354 0.890459 0.893541 0.897394 0.893586 0.892426 0.888677 0.885132 0.879928 0.881401 0.871439 0.874256 0.869237 0.860235 0.853325 0.856284 0.865439 0.873373 0.881360 0.880412 0.880419 0.879632 0.871258 0.872440 0.863518 0.864463 0.869790 0.875683 0.872039 0.869325 0.873807 0.871996 0.873599 0.876207 0.872725 0.870963 0.861978 0.862311 0.864454 0.881161 0.881513 0.869886 0.861499 0.851395 0.858331 0.861677 0.860944 0.862768 0.853383 0.854855 0.844426 0.833149 0.834943 0.839802 0.834185 0.835699 0.833847 0.837598 0.840098 0.838389 0.833344 0.832047 0.836803 0.812089 0.818759 0.821466 0.816220 0.820460 0.812717 0.806333 0.801069 0.800521 0.795549 0.806588 0.804906 0.772198 0.764230 0.771948 0.754971 0.745932 0.742058 0.743200 0.719824 0.700123 0.670381 0.665222 0.651692 0.651673 0.651307 0.643033 0.626249 0.612878 0.605158 0.620834 0.623871 0.592041 0.591981 0.585875 0.580979 0.576114 0.575896 0.573353 0.579363 0.583919 0.549003 0.544415 0.551315 0.525563 0.524047 0.521997 0.512541 0.484011 0.489983 0.485902 0.505251 0.531992 0.494288 0.488507 0.498761 0.513212 0.525079 0.524978 0.511150 0.491450 0.503619 0.477940 0.458981 0.474858 0.483647 0.474579 0.489955 0.481304 0.510797 0.502922 0.483406 0.509877 0.521898 0.519474 0.518642 0.533113 0.523529 0.526862 0.516025 0.471345 0.481228 0.464463 0.407849 0.403512 0.421136 0.407660 0.406346 0.380252 0.382552 0.358884 0.326701 0.333253 0.327778 0.292613 0.255425 0.258614 0.260525 0.228272 0.200127 0.221576 0.172193 0.165036 0.184611 0.193115 0.185744 0.182836 0.204935 0.204935 0.204935 0.204935 0.204935 0.204935 0.204935 0.204935 0.204935 0.204935 0.204935 0.204935 0.204935 0.204935 0.230236 0.230236 0.230236 0.230236 0.230236 0.230236 0.230236 0.230236 0.230236 0.230236 0.230236 0.230236
0.000000 0.000000 0.000000 0.000000 0.000000 0.000000 0.000000 0.000000 0.000000 0.000000 0.000000 0.000000 0.000000 0.000000 0.000000 0.000000 0.000000 0.000000 0.000000 0.000000 0.000000 0.000000 0.000000 0.000000 0.000000 0.000000 0.000000 0.000000 0.000000 0.000000 0.000000 0.000000 0.000000 0.000000 0.000000 0.000000 0.000000 0.000000 0.000000 0.000000 0.000000 0.000000 0.000000 0.000000 0.000000 0.000000 0.000000 0.000000 0.000000 0.000000 0.000000 0.000000 0.209657 0.209657 0.209657 0.209657 0.209657 0.209657 0.209657 0.209657 0.209657 0.209657 0.209657 0.209657 0.209657 0.209657 0.209657 0.209657 0.209657 0.209657 0.209657 0.209657 0.209657 0.209657 0.209657 0.209657 0.209657 0.209657 0.209657 0.209657 0.209657 0.209657 0.209657 0.209657 0.209657 0.244339 0.244339 0.244339 0.244339 0.244339 0.244339 0.244339 0.244339 0.244339 0.244339 0.244339 0.244339 0.244339 0.244339 0.244339 0.244339 0.244339 0.244339 0.244339 0.244339 0.244339 0.244339 0.244339 0.244339 0.244339 0.260378 0.260378 0.260378 0.260378 0.260378 0.260378 0.260378 0.260378 0.260378 0.260378 0.260378 0.260378 0.260378 0.260378 0.260378 0.260378 0.260378 0.260378 0.260378 0.260378 0.269680 0.269680 0.269680 0.269680 0.269680 0.269680 0.269680 0.269680 0.269680 0.269680 0.269680 0.269680 0.269680 0.269680 0.269680 0.269680 0.269680 0.269680 0.269680 0.269680 0.269680 0.269680 0.269680 0.269680 0.269680 0.269680 0.269680 0.269680 0.269680 0.269680 0.269680 0.269680 0.269680 0.280056 0.280056 0.280056 0.280056 0.280056 0.280056 0.280056 0.280056 0.280056 0.280056 0.280056 0.280056 0.280056 0.280056 0.280056 0.280056 0.280056 0.280056 0.280056 0.280056 0.280056 0.280056 0.280056 0.280056 0.280056 0.280056 0.280056 0.274721 0.274721 0.274721 0.274721 0.274721 0.274721 0.274721 0.274721 0.274721 0.274721 0.274721 0.274721 0.274721 0.285714 0.285714 0.285714 0.285714 0.285714 0.285714 0.285714 0.285714 0.285714 0.285714 0.285714 0.280056 0.280056 0.280056 0.280056 0.280056 0.280056 0.280056 0.280056 0.280056 0.280056 0.280056 0.274721 0.274721 0.274721 0.274721 0.274721 0.274721 0.274721 0.274721 0.274721 0.274721 0.274721 0.280056 0.280056 0.280056 0.280056 0.280056 0.280056 0.280056 0.280056 0.280056 0.280056 0.285714 0.285714 0.285714 0.285714 0.285714 0.285714 0.285714 0.285714 0.285714 0.269680 0.269680 0.269680 0.269680 0.269680 0.269680 0.269680 0.269680 0.269680 0.269680 0.274721 0.274721 0.274721 0.274721 0.274721 0.274721 0.274721 0.274721 0.274721 0.285714 0.285714 0.285714 0.285714 0.285714 0.285714 0.285714 0.285714 0.264906 0.264906 0.264906 0.264906 0.264906 0.264906 0.264906 0.264906 0.264906 0.274721 0.274721 0.274721 0.274721 0.274721 0.274721 0.274721 0.274721 0.269680 0.269680 0.269680 0.269680 0.269680 0.269680 0.269680 0.269680 0.269680 0.269680 0.269680 0.269680 0.269680 0.269680 0.269680 0.269680 0.280056 0.280056 0.280056 0.280056 0.280056 0.280056 0.280056 0.260378 0.260378 0.260378 0.260378 0.260378 0.260378 0.260378 0.260378 0.269680 0.269680 0.269680 0.269680 0.269680 0.269680 0.269680 0.264906 0.264906 0.264906 0.264906 0.264906 0.264906 0.264906 0.264906 0.264906 0.264906 0.264906 0.264906 0.264906 0.264906 0.260378 0.260378 0.260378 0.260378 0.260378 0.260378 0.260378 0.260378 0.260378 0.260378 0.260378 0.260378
