# Output from CTFFind version 4.1.9, run on 2019-11-03 20:05:20
# Input file: stack11_bm3d_averaged_1_6.0_0_750_half.mrc ; Number of micrographs: 1
# Pixel size: 3.000 Angstroms ; acceleration voltage: 300.0 keV ; spherical aberration: 0.00 mm ; amplitude contrast: 0.07
# Box size: 512 pixels ; min. res.: 30.0 Angstroms ; max. res.: 5.0 Angstroms ; min. def.: 5000.0 um; max. def. 50000.0 um; num. frames averaged: 1
# 6 lines per micrograph: #1 - spatial frequency (1/Angstroms); #2 - 1D rotational average of spectrum (assuming no astigmatism); #3 - 1D rotational average of spectrum; #4 - CTF fit; #5 - cross-correlation between spectrum and CTF fit; #6 - 2sigma of expected cross correlation of noise
0.000000 0.000651 0.001302 0.001953 0.002604 0.003255 0.003906 0.004557 0.005208 0.005859 0.006510 0.007161 0.007812 0.008464 0.009115 0.009766 0.010417 0.011068 0.011719 0.012370 0.013021 0.013672 0.014323 0.014974 0.015625 0.016276 0.016927 0.017578 0.018229 0.018880 0.019531 0.020182 0.020833 0.021484 0.022135 0.022786 0.023438 0.024089 0.024740 0.025391 0.026042 0.026693 0.027344 0.027995 0.028646 0.029297 0.029948 0.030599 0.031250 0.031901 0.032552 0.033203 0.033854 0.034505 0.035156 0.035807 0.036458 0.037109 0.037760 0.038411 0.039062 0.039714 0.040365 0.041016 0.041667 0.042318 0.042969 0.043620 0.044271 0.044922 0.045573 0.046224 0.046875 0.047526 0.048177 0.048828 0.049479 0.050130 0.050781 0.051432 0.052083 0.052734 0.053385 0.054036 0.054688 0.055339 0.055990 0.056641 0.057292 0.057943 0.058594 0.059245 0.059896 0.060547 0.061198 0.061849 0.062500 0.063151 0.063802 0.064453 0.065104 0.065755 0.066406 0.067057 0.067708 0.068359 0.069010 0.069661 0.070312 0.070964 0.071615 0.072266 0.072917 0.073568 0.074219 0.074870 0.075521 0.076172 0.076823 0.077474 0.078125 0.078776 0.079427 0.080078 0.080729 0.081380 0.082031 0.082682 0.083333 0.083984 0.084635 0.085286 0.085938 0.086589 0.087240 0.087891 0.088542 0.089193 0.089844 0.090495 0.091146 0.091797 0.092448 0.093099 0.093750 0.094401 0.095052 0.095703 0.096354 0.097005 0.097656 0.098307 0.098958 0.099609 0.100260 0.100911 0.101562 0.102214 0.102865 0.103516 0.104167 0.104818 0.105469 0.106120 0.106771 0.107422 0.108073 0.108724 0.109375 0.110026 0.110677 0.111328 0.111979 0.112630 0.113281 0.113932 0.114583 0.115234 0.115885 0.116536 0.117188 0.117839 0.118490 0.119141 0.119792 0.120443 0.121094 0.121745 0.122396 0.123047 0.123698 0.124349 0.125000 0.125651 0.126302 0.126953 0.127604 0.128255 0.128906 0.129557 0.130208 0.130859 0.131510 0.132161 0.132812 0.133464 0.134115 0.134766 0.135417 0.136068 0.136719 0.137370 0.138021 0.138672 0.139323 0.139974 0.140625 0.141276 0.141927 0.142578 0.143229 0.143880 0.144531 0.145182 0.145833 0.146484 0.147135 0.147786 0.148438 0.149089 0.149740 0.150391 0.151042 0.151693 0.152344 0.152995 0.153646 0.154297 0.154948 0.155599 0.156250 0.156901 0.157552 0.158203 0.158854 0.159505 0.160156 0.160807 0.161458 0.162109 0.162760 0.163411 0.164062 0.164714 0.165365 0.166016 0.166667 0.167318 0.167969 0.168620 0.169271 0.169922 0.170573 0.171224 0.171875 0.172526 0.173177 0.173828 0.174479 0.175130 0.175781 0.176432 0.177083 0.177734 0.178385 0.179036 0.179688 0.180339 0.180990 0.181641 0.182292 0.182943 0.183594 0.184245 0.184896 0.185547 0.186198 0.186849 0.187500 0.188151 0.188802 0.189453 0.190104 0.190755 0.191406 0.192057 0.192708 0.193359 0.194010 0.194661 0.195312 0.195964 0.196615 0.197266 0.197917 0.198568 0.199219 0.199870 0.200521 0.201172 0.201823 0.202474 0.203125 0.203776 0.204427 0.205078 0.205729 0.206380 0.207031 0.207682 0.208333 0.208984 0.209635 0.210286 0.210938 0.211589 0.212240 0.212891 0.213542 0.214193 0.214844 0.215495 0.216146 0.216797 0.217448 0.218099 0.218750 0.219401 0.220052 0.220703 0.221354 0.222005 0.222656 0.223307 0.223958 0.224609 0.225260 0.225911 0.226562 0.227214 0.227865 0.228516 0.229167 0.229818 0.230469 0.231120 0.231771 0.232422 0.233073 0.233724 0.234375 0.235026 0.235677
       0.34396        0.34396        0.34396        0.34396        0.34396        0.34396        0.34396        0.34396        0.34396        0.34396        0.34396        0.34396        0.34396        0.34396        0.34396        0.34396        0.34396        0.34396        0.34396        0.34396        0.34396        0.34396        0.34396        0.34396        0.34396        0.34396        0.34396        0.34396        0.34396        0.34396        0.34395        0.34396        0.34396        0.34396        0.34396        0.34396        0.34396        0.34396        0.34396        0.34395        0.34396        0.34396        0.34396        0.34396        0.34396        0.34396        0.34396        0.34396        0.34396        0.34396        0.34396        0.69860        0.85851        0.53772        0.10543       -0.02933       -0.38773       -0.18032       -0.28814       -0.11471       -0.05494       -0.11173       -0.05327       -0.16792       -0.20622       -0.21528       -0.30759       -0.31902       -0.44525       -0.36242       -0.42713       -0.42170       -0.39524       -0.41035       -0.45085       -0.50998       -0.55962       -0.55330       -0.52709       -0.35835       -0.32869       -0.29275       -0.27267       -0.18596       -0.17137        0.05997        0.14049        0.17301        0.26459        0.38151        0.45800        0.52341        0.59964        0.59701        0.58337        0.69968        0.80435        0.70470        0.74376        0.62130        0.56899        0.48390        0.43219        0.51248        0.39717        0.26897        0.11577        0.11027        0.09033       -0.01604        0.04148        0.05040        0.00858        0.02710        0.02867        0.23737        0.27126        0.29633        0.43529        0.45385        0.41478        0.59787        0.62099        0.63914        0.72605        0.67733        0.64782        0.65923        0.56103        0.46244        0.41923        0.30389        0.26748        0.18287        0.13560        0.05269        0.06326        0.07222        0.09869        0.15765        0.24387        0.29608        0.42026        0.46512        0.48159        0.56764        0.60445        0.63772        0.61684        0.56015        0.46122        0.47361        0.37928        0.27531        0.21128        0.15719        0.17101        0.15261        0.15767        0.18640        0.32071        0.33462        0.40468        0.44526        0.42742        0.48286        0.56322        0.55506        0.50233        0.45744        0.41287        0.37025        0.34025        0.30749        0.26160        0.24644        0.25184        0.25537        0.22543        0.30920        0.36451        0.38524        0.43969        0.45637        0.46896        0.42700        0.41050        0.40250        0.36330        0.33384        0.27442        0.27844        0.26819        0.24334        0.29396        0.29077        0.35073        0.38197        0.43234        0.47688        0.40887        0.42367        0.43326        0.41169        0.34965        0.32736        0.29365        0.32482        0.27466        0.32153        0.31375        0.33131        0.33970        0.36370        0.31622        0.39083        0.41392        0.38107        0.35082        0.37046        0.31766        0.29474        0.30647        0.32042        0.30829        0.32025        0.34361        0.35516        0.34071        0.36536        0.36413        0.42000        0.38898        0.33921        0.34731        0.29959        0.29312        0.32621        0.32014        0.33033        0.34245        0.34131        0.38655        0.33101        0.33066        0.33822        0.34686        0.30472        0.31302        0.28171        0.30372        0.33033        0.30572        0.33069        0.35684        0.36703        0.29722        0.33977        0.29871        0.29679        0.27960        0.24704        0.30538        0.30576        0.34304        0.33894        0.34297        0.32713        0.34989        0.31490        0.34616        0.30951        0.32352        0.28969        0.33569        0.32660        0.36864        0.32847        0.33593        0.33923        0.29322        0.27582        0.31128        0.25068        0.22921        0.34162        0.32283        0.36592        0.34711        0.36210        0.33327        0.33540        0.34956        0.26538        0.26424        0.31736        0.30123        0.31179        0.31758        0.34050        0.33160        0.29215        0.29100        0.34491        0.32186        0.31817        0.29499        0.32249        0.34035        0.39521        0.35985        0.31870        0.28265        0.30399        0.28928        0.30337        0.27577        0.26707        0.31301        0.33047        0.34492        0.35507        0.33103        0.29257        0.30137        0.26964        0.27662        0.25589        0.30927        0.26473        0.24368        0.29633        0.29114        0.26385        0.29596        0.21709        0.21455        0.24401        0.19281        0.27128        0.34704        0.25265        0.23826        0.31741        0.30554        0.31443        0.31520        0.26824        0.25044        0.19044        0.21134        0.20100        0.26925        0.23515        0.28118        0.35855        0.35656        0.24931        0.16799        0.10283       -0.01316       -0.11762       -0.63147
2.783063 2.753543 2.724185 2.694987 2.665950 2.637073 2.608358 2.579803 2.551409 2.523176 2.495103 2.467191 2.439440 2.411850 2.384421 2.357152 2.330044 2.303097 2.276311 2.249685 2.223220 2.196916 2.170773 2.144790 2.118968 2.093307 2.067807 2.042467 2.017289 1.992271 1.967414 1.942717 1.918181 1.893806 1.869592 1.845539 1.821646 1.797914 1.774343 1.750933 1.727684 1.704595 1.681667 1.658899 1.636293 1.613847 1.591562 1.569438 1.547475 1.525672 1.504030 1.720973 2.144260 1.702368 1.186325 1.050471 0.452231 0.848591 0.561712 0.845655 0.813322 0.818362 0.757235 0.752892 0.596086 0.559366 0.501024 0.428538 0.248289 0.366177 0.200573 0.330158 0.220150 0.208605 0.182899 0.040826 0.005602 0.018284 -0.069270 0.133101 0.232005 0.188962 0.178421 0.326418 0.184540 0.519754 0.623824 0.631132 0.647551 0.876370 0.834728 0.943203 0.936325 1.033275 1.001223 1.085607 1.168932 1.044555 1.163083 0.909779 0.929017 0.795476 0.653441 0.806580 0.696041 0.493308 0.333091 0.250790 0.267242 0.148222 0.134752 0.164805 0.108017 0.121910 0.080904 0.250081 0.352593 0.341233 0.476637 0.545175 0.417560 0.592236 0.729634 0.651843 0.721118 0.710057 0.718259 0.647870 0.596035 0.493660 0.369123 0.276535 0.220449 0.089634 0.116256 -0.111450 -0.048918 -0.063399 -0.081930 -0.020110 0.129863 0.069474 0.241580 0.306555 0.335505 0.376696 0.497520 0.467690 0.479750 0.491848 0.305279 0.293342 0.286752 0.086847 0.045738 -0.078560 -0.014019 -0.062443 -0.095271 -0.074985 0.039043 0.093327 0.124063 0.221676 0.225345 0.223283 0.273416 0.436252 0.397882 0.256660 0.232789 0.223509 0.143302 0.144415 0.117106 -0.004156 0.016095 0.073982 -0.009619 0.047411 0.133826 0.135887 0.215324 0.233761 0.256862 0.167743 0.210258 0.127033 0.132817 0.111302 0.028995 -0.026251 -0.000007 -0.019938 -0.053654 0.054123 0.005314 0.106346 0.138533 0.190563 0.168851 0.118487 0.141176 0.161556 0.111501 0.037461 -0.023637 0.032010 0.025620 -0.040493 0.034237 0.022128 0.047378 0.038865 0.051817 0.035297 0.135206 0.123654 0.046927 0.039756 0.044403 0.006186 -0.030384 0.010122 0.007307 -0.001739 0.006150 0.053638 0.053731 0.039897 0.078682 0.059285 0.159116 0.062906 0.039374 0.041804 -0.033913 0.011370 0.046328 0.007372 0.034126 0.054739 0.079281 0.048889 0.042349 0.010191 0.078259 0.024140 0.022116 0.023469 -0.006270 0.034854 0.026009 0.021949 0.067940 0.075515 0.069979 0.040121 0.049889 0.027142 0.018344 -0.021357 -0.023399 0.035275 0.053097 0.082038 0.084307 0.051547 0.074061 0.102823 0.045667 0.094327 0.063257 0.042215 0.020605 0.102778 0.061006 0.116309 0.081110 0.051572 0.106063 0.036250 0.005047 0.086147 -0.036165 -0.023557 0.099479 0.045970 0.159514 0.094548 0.090803 0.066406 0.041071 0.092239 -0.024396 -0.026119 0.051757 0.039072 0.037722 0.026535 0.102440 0.042118 -0.007843 0.053160 0.046288 0.052355 0.059537 -0.010403 0.062999 0.057497 0.118571 0.055086 0.026492 -0.025270 -0.019068 -0.004832 0.004629 -0.052826 -0.025518 0.003572 0.022996 0.029036 0.052523 0.005857 -0.035781 -0.031206 -0.020407 -0.068323 -0.049616 -0.027745 -0.126902 -0.103052 -0.046868 -0.084045 -0.101263 -0.020944 -0.151945 -0.105924 -0.099371 -0.190177 -0.068137 0.060418 -0.065146 -0.142937 0.052083 0.042248 -0.019169 0.080489 -0.025896 0.000811 -0.092785 -0.031175 0.041143 0.115076 0.056273 0.136980 0.172666 0.415042 0.230603 0.305167 0.126234 -0.018822 -0.699189
0.072396 0.072899 0.074408 0.076922 0.080441 0.084964 0.090490 0.097017 0.104543 0.113065 0.122580 0.133083 0.144570 0.157033 0.170465 0.184857 0.200197 0.216474 0.233671 0.251771 0.270755 0.290600 0.311279 0.332763 0.355018 0.378008 0.401691 0.426022 0.450948 0.476414 0.502359 0.528716 0.555412 0.582367 0.609496 0.636708 0.663903 0.690977 0.717817 0.744304 0.770313 0.795711 0.820358 0.844109 0.866813 0.888313 0.908445 0.927043 0.943936 0.958949 0.971906 0.982629 0.990939 0.996659 0.999613 0.999631 0.996546 0.990199 0.980440 0.967128 0.950135 0.929351 0.904677 0.876038 0.843378 0.806664 0.765889 0.721074 0.672271 0.619561 0.563062 0.502926 0.439342 0.372539 0.302784 0.230384 0.155688 0.079084 0.001001 0.078094 0.157696 0.237264 0.316226 0.393979 0.469897 0.543331 0.613618 0.680085 0.742054 0.798855 0.849828 0.894332 0.931757 0.961530 0.983124 0.996072 0.999971 0.994494 0.979401 0.954544 0.919879 0.875471 0.821501 0.758271 0.686211 0.605879 0.517960 0.423268 0.322742 0.217442 0.108538 0.002697 0.114900 0.226634 0.336404 0.442675 0.543895 0.638519 0.725033 0.801978 0.867983 0.921786 0.962265 0.988464 0.999623 0.995193 0.974868 0.938597 0.886601 0.819387 0.737748 0.642769 0.535819 0.418542 0.292837 0.160836 0.024870 0.112561 0.248839 0.381271 0.507145 0.623785 0.728611 0.819201 0.893351 0.949139 0.984977 0.999667 0.992449 0.963035 0.911644 0.839017 0.746425 0.635659 0.509018 0.369263 0.219577 0.063494 0.095172 0.252418 0.404149 0.546289 0.674889 0.786246 0.877015 0.944322 0.985863 1.000000 0.985834 0.943264 0.873025 0.776697 0.656698 0.516236 0.359246 0.190293 0.014453 0.162835 0.335927 0.499154 0.647015 0.774367 0.876611 0.949877 0.991185 0.998585 0.971267 0.909631 0.815321 0.691212 0.541346 0.370828 0.185670 0.007399 0.201178 0.388249 0.561263 0.713233 0.837830 0.929664 0.984538 0.999658 0.973809 0.907454 0.802776 0.663644 0.495503 0.305191 0.100686 0.109215 0.315263 0.508156 0.678970 0.819583 0.923082 0.984122 0.999243 0.967087 0.888539 0.766758 0.607086 0.416867 0.205125 0.017818 0.240848 0.452590 0.642000 0.798952 0.914797 0.982876 0.998936 0.961435 0.871712 0.733997 0.555265 0.344933 0.114392 0.123571 0.355481 0.567921 0.748325 0.885747 0.971546 0.999985 0.968651 0.878705 0.734910 0.545442 0.321478 0.076580 0.174097 0.414725 0.629805 0.805176 0.928980 0.992511 0.990870 0.923405 0.793872 0.610290 0.384528 0.131577 0.131404 0.386230 0.614937 0.801067 0.930895 0.994477 0.986476 0.906678 0.760138 0.556944 0.311592 0.042018 0.231697 0.488768 0.709328 0.875959 0.975130 0.998353 0.942987 0.812591 0.616798 0.370679 0.093668 0.191941 0.462747 0.696175 0.872366 0.975943 0.997395 0.934057 0.790487 0.578256 0.315107 0.023539 0.271063 0.542614 0.766647 0.922561 0.995580 0.978234 0.871220 0.683526 0.431790 0.138912 0.167962 0.459913 0.708970 0.890840 0.987315 0.988209 0.892521 0.708745 0.454246 0.153710 0.163156 0.464532 0.719675 0.902082 0.992324 0.980211 0.866057 0.660882 0.385468 0.068372 0.256956 0.555675 0.795292 0.949240 0.999924 0.940844 0.777554 0.527290 0.217296 0.118056 0.440999 0.714637 0.907167 0.995689 0.969028 0.829292 0.591894 0.284003 0.058455 0.394888 0.684863 0.892965 0.993231 0.972497 0.832287 0.588909 0.271729 0.080250 0.423108 0.713458 0.913975 0.998303 0.954650 0.787599 0.517832 0.179739 0.182853
1.000000 1.000000 1.000000 1.000000 1.000000 1.000000 1.000000 1.000000 1.000000 1.000000 1.000000 1.000000 1.000000 1.000000 1.000000 1.000000 1.000000 1.000000 1.000000 1.000000 1.000000 1.000000 1.000000 1.000000 1.000000 1.000000 1.000000 1.000000 1.000000 1.000000 1.000000 1.000000 1.000000 1.000000 1.000000 1.000000 1.000000 1.000000 1.000000 1.000000 1.000000 1.000000 1.000000 1.000000 1.000000 1.000000 1.000000 1.000000 1.000000 1.000000 1.000000 1.000000 0.918898 0.918898 0.918898 0.912163 0.912163 0.912163 0.912163 0.912163 0.912163 0.912163 0.912163 0.912163 0.912163 0.912163 0.912163 0.912163 0.912163 0.912163 0.912163 0.912163 0.912163 0.912163 0.912163 0.912163 0.912163 0.912163 0.912163 0.912163 0.912163 0.912163 0.912163 0.912163 0.912163 0.912163 0.912163 0.912163 0.912163 0.912163 0.912163 0.912163 0.912163 0.912163 0.912163 0.912163 0.940957 0.942370 0.950664 0.950216 0.949628 0.947630 0.946401 0.946059 0.945970 0.946312 0.947032 0.948007 0.954226 0.955142 0.959558 0.962256 0.962441 0.964189 0.964910 0.964542 0.956146 0.955914 0.954500 0.953974 0.956500 0.955616 0.954883 0.955856 0.955765 0.956074 0.956072 0.955427 0.954399 0.953354 0.952456 0.952065 0.951875 0.952593 0.953002 0.954437 0.957675 0.958273 0.958411 0.956834 0.955599 0.956868 0.956118 0.955416 0.943700 0.943185 0.941843 0.941891 0.944994 0.945079 0.945670 0.946287 0.948064 0.948426 0.943461 0.943193 0.935846 0.932861 0.930774 0.925085 0.920296 0.922169 0.924208 0.924714 0.924913 0.919213 0.919172 0.917098 0.913135 0.915546 0.915802 0.917144 0.918528 0.914120 0.913512 0.912232 0.910624 0.903087 0.891088 0.889863 0.884782 0.889787 0.889607 0.888517 0.891520 0.880924 0.866005 0.834870 0.837277 0.840671 0.831703 0.827266 0.827346 0.828166 0.832552 0.825689 0.823991 0.818524 0.806502 0.801563 0.794936 0.780732 0.782431 0.773934 0.763805 0.759349 0.783359 0.777299 0.788339 0.792630 0.792308 0.789144 0.781154 0.771035 0.770089 0.765691 0.762305 0.740348 0.732050 0.732268 0.729316 0.718204 0.721951 0.709529 0.709587 0.697795 0.702325 0.707295 0.710967 0.707145 0.701916 0.693790 0.689728 0.701871 0.715889 0.710626 0.706237 0.707440 0.697109 0.686232 0.682765 0.687010 0.681641 0.664132 0.671647 0.697683 0.666087 0.655451 0.662704 0.667256 0.656888 0.658461 0.638104 0.631777 0.611023 0.628333 0.633342 0.649876 0.650000 0.650467 0.661994 0.667416 0.678328 0.682680 0.682274 0.643440 0.646513 0.666863 0.674271 0.661961 0.651316 0.652326 0.648897 0.684206 0.672923 0.629199 0.625544 0.622932 0.583565 0.561434 0.560229 0.564008 0.590062 0.584767 0.564668 0.539777 0.542862 0.546595 0.548266 0.547233 0.532770 0.539749 0.525903 0.502443 0.512584 0.519470 0.517459 0.502377 0.498671 0.509071 0.485056 0.518158 0.492655 0.469447 0.489056 0.486452 0.474772 0.400422 0.415978 0.403377 0.395584 0.350401 0.360222 0.368923 0.352780 0.277876 0.269842 0.270855 0.268494 0.250294 0.231838 0.218589 0.206435 0.185038 0.123949 0.082309 0.082338 0.085042 0.110023 0.069837 0.119868 0.184800 0.184812 0.184812 0.184812 0.184812 0.184812 0.184812 0.184812 0.184812 0.160332 0.160332 0.160332 0.160332 0.160332 0.160332 0.160332 0.160332 0.160332 0.184812 0.184812 0.184812 0.184812 0.184812 0.184812 0.184812 0.184812 0.184812 0.184812 0.184812 0.184812 0.184812 0.184812
0.000000 0.000000 0.000000 0.000000 0.000000 0.000000 0.000000 0.000000 0.000000 0.000000 0.000000 0.000000 0.000000 0.000000 0.000000 0.000000 0.000000 0.000000 0.000000 0.000000 0.000000 0.000000 0.000000 0.000000 0.000000 0.000000 0.000000 0.000000 0.000000 0.000000 0.000000 0.000000 0.000000 0.000000 0.000000 0.000000 0.000000 0.000000 0.000000 0.000000 0.000000 0.000000 0.000000 0.000000 0.000000 0.000000 0.000000 0.000000 0.000000 0.000000 0.000000 0.000000 0.180334 0.180334 0.180334 0.199007 0.199007 0.199007 0.199007 0.199007 0.199007 0.199007 0.199007 0.199007 0.199007 0.199007 0.199007 0.199007 0.199007 0.199007 0.199007 0.199007 0.199007 0.199007 0.199007 0.199007 0.199007 0.199007 0.199007 0.199007 0.199007 0.199007 0.199007 0.199007 0.199007 0.199007 0.199007 0.199007 0.199007 0.199007 0.199007 0.199007 0.199007 0.199007 0.199007 0.199007 0.225018 0.225018 0.225018 0.225018 0.225018 0.225018 0.225018 0.225018 0.225018 0.225018 0.225018 0.225018 0.225018 0.225018 0.225018 0.225018 0.225018 0.225018 0.225018 0.225018 0.225018 0.225018 0.225018 0.225018 0.225018 0.225018 0.225018 0.225018 0.225018 0.244339 0.244339 0.244339 0.244339 0.244339 0.244339 0.244339 0.244339 0.244339 0.244339 0.244339 0.244339 0.244339 0.244339 0.244339 0.244339 0.244339 0.244339 0.244339 0.244339 0.244339 0.244339 0.244339 0.251976 0.251976 0.251976 0.251976 0.251976 0.251976 0.251976 0.251976 0.251976 0.251976 0.251976 0.251976 0.251976 0.251976 0.251976 0.251976 0.251976 0.251976 0.251976 0.251976 0.264906 0.264906 0.264906 0.264906 0.264906 0.264906 0.264906 0.264906 0.264906 0.264906 0.264906 0.264906 0.264906 0.264906 0.264906 0.264906 0.264906 0.264906 0.264906 0.264906 0.264906 0.264906 0.264906 0.264906 0.264906 0.264906 0.264906 0.264906 0.264906 0.264906 0.264906 0.264906 0.264906 0.264906 0.264906 0.264906 0.264906 0.264906 0.264906 0.264906 0.264906 0.264906 0.264906 0.264906 0.264906 0.264906 0.264906 0.264906 0.264906 0.264906 0.264906 0.264906 0.264906 0.264906 0.264906 0.264906 0.264906 0.264906 0.264906 0.264906 0.264906 0.264906 0.264906 0.264906 0.264906 0.264906 0.264906 0.264906 0.264906 0.264906 0.264906 0.264906 0.264906 0.264906 0.264906 0.260378 0.260378 0.260378 0.260378 0.260378 0.260378 0.260378 0.260378 0.260378 0.260378 0.260378 0.260378 0.260378 0.264906 0.264906 0.264906 0.264906 0.264906 0.264906 0.264906 0.264906 0.264906 0.264906 0.264906 0.264906 0.269680 0.269680 0.269680 0.269680 0.269680 0.269680 0.269680 0.269680 0.269680 0.269680 0.269680 0.264906 0.264906 0.264906 0.264906 0.264906 0.264906 0.264906 0.264906 0.264906 0.264906 0.264906 0.256074 0.256074 0.256074 0.256074 0.256074 0.256074 0.256074 0.256074 0.256074 0.256074 0.256074 0.264906 0.264906 0.264906 0.264906 0.264906 0.264906 0.264906 0.264906 0.264906 0.264906 0.260378 0.260378 0.260378 0.260378 0.260378 0.260378 0.260378 0.260378 0.260378 0.260378 0.264906 0.264906 0.264906 0.264906 0.264906 0.264906 0.264906 0.264906 0.264906 0.251976 0.251976 0.251976 0.251976 0.251976 0.251976 0.251976 0.251976 0.251976 0.251976 0.256074 0.256074 0.256074 0.256074 0.256074 0.256074 0.256074 0.256074 0.256074 0.251976 0.251976 0.251976 0.251976 0.251976 0.251976 0.251976 0.251976 0.251976 0.251976 0.251976 0.251976 0.251976 0.251976
