# Output from CTFFind version 4.1.9, run on 2019-11-03 19:02:25
# Input file: stack16_bm3d_averaged_1_2.75_0_1250_half.mrc ; Number of micrographs: 1
# Pixel size: 3.000 Angstroms ; acceleration voltage: 300.0 keV ; spherical aberration: 0.00 mm ; amplitude contrast: 0.07
# Box size: 512 pixels ; min. res.: 30.0 Angstroms ; max. res.: 5.0 Angstroms ; min. def.: 5000.0 um; max. def. 50000.0 um; num. frames averaged: 1
# 6 lines per micrograph: #1 - spatial frequency (1/Angstroms); #2 - 1D rotational average of spectrum (assuming no astigmatism); #3 - 1D rotational average of spectrum; #4 - CTF fit; #5 - cross-correlation between spectrum and CTF fit; #6 - 2sigma of expected cross correlation of noise
0.000000 0.000651 0.001302 0.001953 0.002604 0.003255 0.003906 0.004557 0.005208 0.005859 0.006510 0.007161 0.007812 0.008464 0.009115 0.009766 0.010417 0.011068 0.011719 0.012370 0.013021 0.013672 0.014323 0.014974 0.015625 0.016276 0.016927 0.017578 0.018229 0.018880 0.019531 0.020182 0.020833 0.021484 0.022135 0.022786 0.023438 0.024089 0.024740 0.025391 0.026042 0.026693 0.027344 0.027995 0.028646 0.029297 0.029948 0.030599 0.031250 0.031901 0.032552 0.033203 0.033854 0.034505 0.035156 0.035807 0.036458 0.037109 0.037760 0.038411 0.039062 0.039714 0.040365 0.041016 0.041667 0.042318 0.042969 0.043620 0.044271 0.044922 0.045573 0.046224 0.046875 0.047526 0.048177 0.048828 0.049479 0.050130 0.050781 0.051432 0.052083 0.052734 0.053385 0.054036 0.054688 0.055339 0.055990 0.056641 0.057292 0.057943 0.058594 0.059245 0.059896 0.060547 0.061198 0.061849 0.062500 0.063151 0.063802 0.064453 0.065104 0.065755 0.066406 0.067057 0.067708 0.068359 0.069010 0.069661 0.070312 0.070964 0.071615 0.072266 0.072917 0.073568 0.074219 0.074870 0.075521 0.076172 0.076823 0.077474 0.078125 0.078776 0.079427 0.080078 0.080729 0.081380 0.082031 0.082682 0.083333 0.083984 0.084635 0.085286 0.085938 0.086589 0.087240 0.087891 0.088542 0.089193 0.089844 0.090495 0.091146 0.091797 0.092448 0.093099 0.093750 0.094401 0.095052 0.095703 0.096354 0.097005 0.097656 0.098307 0.098958 0.099609 0.100260 0.100911 0.101562 0.102214 0.102865 0.103516 0.104167 0.104818 0.105469 0.106120 0.106771 0.107422 0.108073 0.108724 0.109375 0.110026 0.110677 0.111328 0.111979 0.112630 0.113281 0.113932 0.114583 0.115234 0.115885 0.116536 0.117188 0.117839 0.118490 0.119141 0.119792 0.120443 0.121094 0.121745 0.122396 0.123047 0.123698 0.124349 0.125000 0.125651 0.126302 0.126953 0.127604 0.128255 0.128906 0.129557 0.130208 0.130859 0.131510 0.132161 0.132812 0.133464 0.134115 0.134766 0.135417 0.136068 0.136719 0.137370 0.138021 0.138672 0.139323 0.139974 0.140625 0.141276 0.141927 0.142578 0.143229 0.143880 0.144531 0.145182 0.145833 0.146484 0.147135 0.147786 0.148438 0.149089 0.149740 0.150391 0.151042 0.151693 0.152344 0.152995 0.153646 0.154297 0.154948 0.155599 0.156250 0.156901 0.157552 0.158203 0.158854 0.159505 0.160156 0.160807 0.161458 0.162109 0.162760 0.163411 0.164062 0.164714 0.165365 0.166016 0.166667 0.167318 0.167969 0.168620 0.169271 0.169922 0.170573 0.171224 0.171875 0.172526 0.173177 0.173828 0.174479 0.175130 0.175781 0.176432 0.177083 0.177734 0.178385 0.179036 0.179688 0.180339 0.180990 0.181641 0.182292 0.182943 0.183594 0.184245 0.184896 0.185547 0.186198 0.186849 0.187500 0.188151 0.188802 0.189453 0.190104 0.190755 0.191406 0.192057 0.192708 0.193359 0.194010 0.194661 0.195312 0.195964 0.196615 0.197266 0.197917 0.198568 0.199219 0.199870 0.200521 0.201172 0.201823 0.202474 0.203125 0.203776 0.204427 0.205078 0.205729 0.206380 0.207031 0.207682 0.208333 0.208984 0.209635 0.210286 0.210938 0.211589 0.212240 0.212891 0.213542 0.214193 0.214844 0.215495 0.216146 0.216797 0.217448 0.218099 0.218750 0.219401 0.220052 0.220703 0.221354 0.222005 0.222656 0.223307 0.223958 0.224609 0.225260 0.225911 0.226562 0.227214 0.227865 0.228516 0.229167 0.229818 0.230469 0.231120 0.231771 0.232422 0.233073 0.233724 0.234375 0.235026 0.235677
       0.33777        0.33777        0.33777        0.33777        0.33777        0.33777        0.33777        0.33777        0.33777        0.33777        0.33777        0.33777        0.33777        0.33777        0.33777        0.33777        0.33777        0.33777        0.33777        0.33777        0.33777        0.33777        0.33777        0.33777        0.33777        0.33777        0.33777        0.33777        0.33777        0.33777        0.33777        0.33777        0.33777        0.33777        0.33777        0.33777        0.33777        0.33777        0.33777        0.33777        0.33777        0.33777        0.33777        0.33777        0.33777        0.33777        0.33777        0.33777        0.33777        0.33777        0.33777        0.45829        0.63884        0.42365       -0.12881       -0.42851       -0.57134       -0.66159       -0.73377       -0.75436       -0.89062       -0.92639       -0.74751       -0.93128       -0.87735       -1.02156       -1.08478       -0.97106       -0.93523       -0.85613       -0.80313       -0.71056       -0.61816       -0.50243       -0.42523       -0.23069       -0.10834       -0.02226        0.18866        0.22306        0.30220        0.36946        0.40468        0.48831        0.56726        0.59415        0.56936        0.49436        0.54843        0.49080        0.40741        0.32773        0.19002        0.17411        0.10415       -0.04767       -0.10152       -0.07273        0.02822       -0.01158        0.02277        0.02595        0.17440        0.20225        0.38771        0.46034        0.56739        0.69562        0.77269        0.72587        0.67754        0.64454        0.57067        0.48357        0.36885        0.28413        0.18980        0.17969        0.08844        0.02503        0.00293        0.02912        0.07983        0.26987        0.38464        0.49253        0.55230        0.60264        0.68923        0.64716        0.64985        0.64392        0.58785        0.48417        0.28529        0.25370        0.21284        0.11540        0.05269        0.10235        0.12909        0.26006        0.33715        0.41412        0.48086        0.55149        0.65141        0.59081        0.53074        0.50602        0.38227        0.21309        0.23196        0.16803        0.13624        0.15120        0.23115        0.25493        0.34961        0.43134        0.43147        0.52530        0.49794        0.45615        0.44758        0.36118        0.31459        0.25769        0.21866        0.21877        0.20091        0.21412        0.30461        0.41171        0.45434        0.47811        0.54589        0.47598        0.43778        0.38363        0.31402        0.22980        0.23844        0.24313        0.26528        0.29120        0.32337        0.42891        0.50705        0.48513        0.45373        0.37776        0.37014        0.36260        0.21810        0.23400        0.25663        0.28669        0.34538        0.36001        0.40416        0.43718        0.44048        0.38182        0.34809        0.31729        0.32226        0.27366        0.24715        0.27241        0.32646        0.40180        0.41132        0.39834        0.39177        0.40762        0.35260        0.27955        0.28048        0.29037        0.31874        0.37233        0.36437        0.40695        0.34598        0.37511        0.37982        0.34592        0.30886        0.26883        0.28073        0.32562        0.32599        0.32895        0.34019        0.37484        0.33140        0.35355        0.28902        0.30353        0.25878        0.27783        0.30173        0.33049        0.38721        0.36400        0.34838        0.31267        0.27159        0.26255        0.29809        0.28860        0.32175        0.35287        0.37677        0.33915        0.31675        0.30021        0.29624        0.29630        0.28839        0.31092        0.33711        0.33652        0.32204        0.28927        0.33635        0.31860        0.28962        0.31247        0.32750        0.34019        0.35047        0.30656        0.31581        0.28256        0.28805        0.29814        0.31966        0.39177        0.32282        0.36651        0.29892        0.30645        0.30715        0.30799        0.30578        0.29890        0.30003        0.33402        0.34300        0.29224        0.30995        0.29627        0.28813        0.30547        0.31239        0.32416        0.35469        0.36073        0.30656        0.30096        0.28844        0.24031        0.31568        0.34024        0.29607        0.29338        0.26713        0.29286        0.31723        0.32101        0.28991        0.30711        0.32473        0.31744        0.23790        0.29104        0.29925        0.28090        0.32713        0.28455        0.35246        0.38260        0.27768        0.28402        0.26304        0.26971        0.29754        0.27929        0.25826        0.24269        0.26080        0.30931        0.28804        0.26954        0.25580        0.34654        0.30904        0.26960        0.22574        0.21066        0.26648        0.22828        0.21707        0.28647        0.36315        0.24017        0.24660        0.27524        0.22698        0.22699        0.30016        0.27935        0.23088        0.18822        0.27659        0.33081        0.26155        0.10754        0.04158       -0.44489       -0.69780
2.968964 2.932031 2.895337 2.858879 2.822660 2.786678 2.750933 2.715426 2.680157 2.645125 2.610331 2.575774 2.541455 2.507373 2.473529 2.439923 2.406554 2.373423 2.340529 2.307873 2.275454 2.243273 2.211330 2.179624 2.148156 2.116925 2.085932 2.055176 2.024658 1.994378 1.964335 1.934529 1.904961 1.875631 1.846539 1.817684 1.789066 1.760686 1.732544 1.704639 1.676972 1.649542 1.622350 1.595395 1.568678 1.542199 1.515957 1.489953 1.464186 1.438657 1.413365 1.464592 1.600928 1.548264 0.915457 0.625094 0.440616 0.383539 0.299255 0.229640 0.150651 -0.033756 0.178940 0.039559 -0.055762 -0.091248 -0.232960 -0.169981 -0.097227 -0.095403 -0.087910 0.012447 0.030535 0.201382 0.125889 0.329771 0.430319 0.456541 0.674962 0.672910 0.674413 0.810805 0.781674 0.799641 0.921134 0.858654 0.910187 0.726343 0.825452 0.828707 0.630637 0.585089 0.448513 0.416303 0.364996 0.198357 0.126927 0.098639 0.217584 0.135423 0.200333 0.095559 0.279419 0.263831 0.437337 0.406457 0.595571 0.626895 0.751500 0.733927 0.632772 0.619513 0.501629 0.468392 0.307007 0.300026 0.122803 0.165869 0.020149 -0.014594 -0.044925 -0.070162 -0.021651 0.041575 0.250382 0.313093 0.378817 0.342344 0.473430 0.489416 0.481679 0.480435 0.374696 0.394128 0.145466 0.097991 0.077546 -0.011726 -0.129519 -0.032319 -0.093077 0.021802 0.125955 0.162306 0.251774 0.253442 0.371385 0.478736 0.346574 0.383542 0.303069 0.138329 0.068374 0.070364 0.033870 0.024351 0.051165 0.115449 0.127541 0.258406 0.240341 0.292839 0.345875 0.250510 0.250666 0.208559 0.118440 0.072513 0.035189 0.030608 0.017199 -0.007003 0.030962 0.161559 0.189340 0.223218 0.295175 0.219693 0.224544 0.129644 0.114032 0.001283 -0.018347 -0.000370 0.001518 0.035314 0.022203 0.100739 0.194354 0.202101 0.206477 0.133033 0.103876 0.093667 0.043375 -0.073370 -0.004783 0.012462 0.040070 0.050718 0.099820 0.156128 0.138832 0.158965 0.068521 0.063691 0.048327 0.050917 -0.002843 -0.008945 0.017168 0.078342 0.121388 0.145299 0.078639 0.141430 0.117794 0.023926 0.009571 0.010815 0.020080 0.072996 0.086519 0.101682 0.109628 0.067920 0.107133 0.083471 0.060178 0.030062 -0.019742 0.026246 0.068276 0.041134 0.054284 0.052093 0.073948 0.083278 0.033561 0.016623 0.015599 -0.037202 0.006804 0.021350 0.045085 0.108952 0.068883 0.051694 0.010418 -0.031234 -0.015431 0.016230 0.009631 0.031531 0.067202 0.067792 0.006661 0.038753 -0.026183 0.017961 -0.012981 -0.021556 0.025809 0.055946 0.012285 0.010470 -0.009984 0.035332 -0.003373 -0.008885 0.013755 0.029392 0.026630 0.074007 0.002402 -0.007152 -0.035809 -0.004661 0.000542 0.026845 0.084409 0.017167 0.045149 -0.016135 0.029236 -0.013908 0.020077 0.010501 0.005425 -0.009934 0.045549 0.023842 0.012895 0.021451 -0.024033 -0.004896 0.000314 0.001325 0.029932 0.061575 0.053418 0.005622 0.013422 -0.021565 -0.034040 0.000595 0.024819 0.013037 0.015988 -0.032716 -0.008119 0.019099 0.032275 -0.004249 -0.004141 0.034407 0.032646 -0.065333 0.007715 0.030877 -0.015020 0.027948 0.028366 0.083667 0.102041 0.015672 0.024599 -0.021569 0.025553 -0.023820 0.008657 0.003321 -0.026857 -0.029486 0.056176 0.009963 -0.003947 -0.062868 0.055532 -0.002250 -0.040787 -0.087009 -0.077117 -0.023947 -0.064792 -0.088644 0.013570 0.071378 -0.096103 -0.026030 0.021953 0.004924 -0.083064 0.051115 0.063388 0.076902 -0.036908 0.225611 0.275223 0.200228 0.040855 0.041394 -0.617286
0.072396 0.073047 0.074998 0.078251 0.082802 0.088652 0.095797 0.104235 0.113962 0.124973 0.137260 0.150817 0.165632 0.181693 0.198984 0.217488 0.237181 0.258038 0.280028 0.303115 0.327260 0.352413 0.378523 0.405528 0.433359 0.461941 0.491188 0.521004 0.551288 0.581923 0.612785 0.643739 0.674637 0.705321 0.735621 0.765357 0.794336 0.822354 0.849197 0.874640 0.898452 0.920388 0.940200 0.957633 0.972427 0.984321 0.993052 0.998360 0.999989 0.997691 0.991228 0.980375 0.964926 0.944695 0.919522 0.889274 0.853853 0.813198 0.767291 0.716157 0.659873 0.598570 0.532435 0.461717 0.386728 0.307845 0.225512 0.140241 0.052612 0.036728 0.127069 0.217640 0.307612 0.396108 0.482206 0.564949 0.643359 0.716442 0.783205 0.842670 0.893890 0.935961 0.968044 0.989383 0.999319 0.997311 0.982955 0.955997 0.916354 0.864125 0.799606 0.723295 0.635905 0.538364 0.431815 0.317611 0.197306 0.072640 0.054479 0.182000 0.307761 0.429521 0.545002 0.651928 0.748078 0.831334 0.899730 0.951509 0.985170 0.999523 0.993736 0.967369 0.920422 0.853351 0.767090 0.663064 0.543172 0.409778 0.265677 0.114050 0.041603 0.197525 0.349798 0.494433 0.627481 0.745145 0.843890 0.920571 0.972536 0.997740 0.994832 0.963242 0.903236 0.815954 0.703421 0.568527 0.414984 0.247242 0.070376 0.110045 0.288132 0.457861 0.613278 0.748718 0.859020 0.939745 0.987374 0.999486 0.974904 0.913798 0.817746 0.689736 0.534114 0.356474 0.163480 0.037352 0.237939 0.429943 0.605126 0.755699 0.874703 0.956345 0.996317 0.992052 0.942928 0.850372 0.717887 0.550970 0.356938 0.144634 0.075933 0.294047 0.498803 0.679646 0.826943 0.932517 0.990146 0.995972 0.948804 0.850290 0.704941 0.519990 0.305090 0.071861 0.166709 0.396967 0.605374 0.779310 0.907880 0.982629 0.998165 0.952598 0.847795 0.689397 0.486600 0.251690 0.000643 0.254199 0.492274 0.698777 0.859339 0.962364 0.999924 0.968446 0.869114 0.707952 0.495556 0.246485 0.021673 0.289504 0.537142 0.745769 0.899067 0.984568 0.994736 0.927732 0.787735 0.584816 0.334315 0.055769 0.228548 0.495383 0.722400 0.890101 0.983552 0.993814 0.918907 0.764189 0.542123 0.271388 0.024594 0.319626 0.587022 0.802050 0.944270 0.999566 0.961664 0.832964 0.624563 0.355454 0.050896 0.259847 0.546311 0.779799 0.936336 0.999210 0.960901 0.824111 0.601768 0.315980 0.004033 0.324862 0.612328 0.835168 0.968512 0.996767 0.915602 0.732745 0.467431 0.148562 0.188328 0.504962 0.764664 0.936674 0.999902 0.945685 0.779142 0.518922 0.195315 0.153131 0.484119 0.756719 0.936499 0.999996 0.937963 0.756905 0.478651 0.137924 0.221834 0.553913 0.814416 0.968141 0.993489 0.885717 0.657994 0.340043 0.025532 0.388804 0.699316 0.913110 0.999108 0.943821 0.753709 0.454719 0.089008 0.290848 0.629303 0.876000 0.993378 0.962611 0.786869 0.491361 0.119990 0.270962 0.621279 0.876074 0.994540 0.956701 0.767062 0.454442 0.067885 0.330824 0.676938 0.913301 0.999945 0.921108 0.688400 0.339457 0.067853 0.464848 0.783525 0.968336 0.986064 0.832099 0.531871 0.136998 0.283325 0.654293 0.908858 0.999999 0.909695 0.652852 0.275234 0.154363 0.556452 0.855509 0.994331 0.945227 0.715927 0.348816 0.086539 0.506309 0.828518 0.989146 0.955131 0.731577 0.361474 0.082138 0.510377 0.836197 0.992262 0.945126 0.702832 0.314057 0.141283 0.568165 0.876288 0.999294 0.909436 0.624265 0.203707 0.262104 0.671965
1.000000 1.000000 1.000000 1.000000 1.000000 1.000000 1.000000 1.000000 1.000000 1.000000 1.000000 1.000000 1.000000 1.000000 1.000000 1.000000 1.000000 1.000000 1.000000 1.000000 1.000000 1.000000 1.000000 1.000000 1.000000 1.000000 1.000000 1.000000 1.000000 1.000000 1.000000 1.000000 1.000000 1.000000 1.000000 1.000000 1.000000 1.000000 1.000000 1.000000 1.000000 1.000000 1.000000 1.000000 1.000000 1.000000 1.000000 1.000000 1.000000 1.000000 1.000000 1.000000 0.936186 0.936186 0.936186 0.936186 0.936186 0.936186 0.936186 0.936186 0.936186 0.936186 0.936186 0.936186 0.936186 0.936186 0.936186 0.936186 0.936186 0.936186 0.936186 0.936186 0.936186 0.936186 0.936186 0.936186 0.936186 0.936186 0.936186 0.936186 0.936186 0.936186 0.936186 0.936186 0.936186 0.922988 0.924474 0.927282 0.928274 0.928216 0.927783 0.927513 0.927780 0.929120 0.930931 0.947324 0.949516 0.950120 0.951298 0.950022 0.952498 0.950667 0.954932 0.965513 0.964638 0.965517 0.959373 0.960542 0.959961 0.959258 0.959589 0.959584 0.958049 0.956251 0.954749 0.955003 0.954726 0.956364 0.956755 0.956591 0.957066 0.957000 0.956842 0.954081 0.952197 0.953538 0.955137 0.954111 0.959677 0.959585 0.967742 0.968780 0.967697 0.967483 0.967682 0.967855 0.962899 0.960007 0.955712 0.943760 0.934538 0.931506 0.935027 0.939119 0.936517 0.931247 0.930144 0.927242 0.922330 0.921770 0.919184 0.919380 0.911692 0.908848 0.899930 0.899608 0.901344 0.902412 0.900548 0.889386 0.883495 0.884785 0.887766 0.881671 0.878783 0.894679 0.891663 0.895006 0.898805 0.901276 0.905681 0.893110 0.888453 0.885163 0.880861 0.879490 0.881702 0.885491 0.887398 0.886890 0.884044 0.878897 0.872627 0.879001 0.884212 0.887269 0.885918 0.886415 0.885935 0.874281 0.873414 0.863806 0.864786 0.871829 0.876438 0.873265 0.871256 0.869957 0.869269 0.868686 0.869362 0.867618 0.861992 0.857624 0.857537 0.854099 0.867789 0.865087 0.855706 0.846113 0.839742 0.848198 0.855386 0.848908 0.845771 0.823132 0.822298 0.820309 0.817749 0.819092 0.824313 0.820101 0.823301 0.820517 0.824142 0.828184 0.826807 0.821565 0.821889 0.822252 0.800771 0.807747 0.804160 0.786811 0.793707 0.779693 0.776844 0.777656 0.778842 0.760187 0.759280 0.719717 0.687589 0.703373 0.710902 0.692658 0.681820 0.680490 0.683533 0.682987 0.661218 0.640679 0.637599 0.644330 0.647469 0.654192 0.616294 0.614854 0.603218 0.570993 0.575023 0.573106 0.538934 0.547245 0.540538 0.537182 0.540488 0.546448 0.552857 0.556608 0.556229 0.541534 0.531162 0.537954 0.508682 0.506450 0.506302 0.506884 0.493811 0.491869 0.462174 0.464960 0.512188 0.474298 0.451449 0.454806 0.455475 0.463636 0.468861 0.468926 0.429687 0.460049 0.430640 0.436947 0.451794 0.433637 0.392731 0.399447 0.378619 0.394280 0.374518 0.349047 0.322921 0.324752 0.317196 0.325419 0.346250 0.332884 0.322311 0.309626 0.268751 0.299136 0.291710 0.283142 0.305380 0.332786 0.313446 0.280933 0.276012 0.270805 0.224628 0.197469 0.216682 0.213702 0.147095 0.091933 0.084927 0.070433 0.046840 0.014213 0.011077 -0.019858 -0.021504 0.017791 0.016730 -0.007724 0.008520 0.030766 0.030766 0.030766 0.030766 0.030766 0.030766 0.030766 0.030766 0.030766 0.030766 0.030766 0.030766 0.030766 0.030766 0.047744 0.047744 0.047744 0.047744 0.047744 0.047744 0.047744 0.047744 0.047744 0.047744 0.047744 0.047744
0.000000 0.000000 0.000000 0.000000 0.000000 0.000000 0.000000 0.000000 0.000000 0.000000 0.000000 0.000000 0.000000 0.000000 0.000000 0.000000 0.000000 0.000000 0.000000 0.000000 0.000000 0.000000 0.000000 0.000000 0.000000 7.000000 4.000000 0.000000 0.000000 0.000000 0.000000 0.000000 0.000000 0.000000 0.000000 0.000000 0.000000 0.000000 0.000000 0.000000 0.000000 0.000000 0.000000 0.000000 0.000000 0.000000 0.000000 0.000000 0.000000 0.000000 0.000000 0.000000 0.209657 0.209657 0.209657 0.209657 0.209657 0.209657 0.209657 0.209657 0.209657 0.209657 0.209657 0.209657 0.209657 0.209657 0.209657 0.209657 0.209657 0.209657 0.209657 0.209657 0.209657 0.209657 0.209657 0.209657 0.209657 0.209657 0.209657 0.209657 0.209657 0.209657 0.209657 0.209657 0.209657 0.244339 0.244339 0.244339 0.244339 0.244339 0.244339 0.244339 0.244339 0.244339 0.244339 0.244339 0.244339 0.244339 0.244339 0.244339 0.244339 0.244339 0.244339 0.244339 0.244339 0.244339 0.244339 0.244339 0.244339 0.244339 0.260378 0.260378 0.260378 0.260378 0.260378 0.260378 0.260378 0.260378 0.260378 0.260378 0.260378 0.260378 0.260378 0.260378 0.260378 0.260378 0.260378 0.260378 0.260378 0.260378 0.269680 0.269680 0.269680 0.269680 0.269680 0.269680 0.269680 0.269680 0.269680 0.269680 0.269680 0.269680 0.269680 0.269680 0.269680 0.269680 0.269680 0.269680 0.269680 0.269680 0.269680 0.269680 0.269680 0.269680 0.269680 0.269680 0.269680 0.269680 0.269680 0.269680 0.269680 0.269680 0.269680 0.280056 0.280056 0.280056 0.280056 0.280056 0.280056 0.280056 0.280056 0.280056 0.280056 0.280056 0.280056 0.280056 0.280056 0.280056 0.280056 0.280056 0.280056 0.280056 0.280056 0.280056 0.280056 0.280056 0.280056 0.280056 0.280056 0.280056 0.274721 0.274721 0.274721 0.274721 0.274721 0.274721 0.274721 0.274721 0.274721 0.274721 0.274721 0.274721 0.274721 0.285714 0.285714 0.285714 0.285714 0.285714 0.285714 0.285714 0.285714 0.285714 0.285714 0.285714 0.280056 0.280056 0.280056 0.280056 0.280056 0.280056 0.280056 0.280056 0.280056 0.280056 0.280056 0.274721 0.274721 0.274721 0.274721 0.274721 0.274721 0.274721 0.274721 0.274721 0.274721 0.274721 0.280056 0.280056 0.280056 0.280056 0.280056 0.280056 0.280056 0.280056 0.280056 0.280056 0.285714 0.285714 0.285714 0.285714 0.285714 0.285714 0.285714 0.285714 0.285714 0.269680 0.269680 0.269680 0.269680 0.269680 0.269680 0.269680 0.269680 0.269680 0.269680 0.274721 0.274721 0.274721 0.274721 0.274721 0.274721 0.274721 0.274721 0.274721 0.285714 0.285714 0.285714 0.285714 0.285714 0.285714 0.285714 0.285714 0.264906 0.264906 0.264906 0.264906 0.264906 0.264906 0.264906 0.264906 0.264906 0.274721 0.274721 0.274721 0.274721 0.274721 0.274721 0.274721 0.274721 0.269680 0.269680 0.269680 0.269680 0.269680 0.269680 0.269680 0.269680 0.269680 0.269680 0.269680 0.269680 0.269680 0.269680 0.269680 0.269680 0.280056 0.280056 0.280056 0.280056 0.280056 0.280056 0.280056 0.260378 0.260378 0.260378 0.260378 0.260378 0.260378 0.260378 0.260378 0.269680 0.269680 0.269680 0.269680 0.269680 0.269680 0.269680 0.264906 0.264906 0.264906 0.264906 0.264906 0.264906 0.264906 0.264906 0.264906 0.264906 0.264906 0.264906 0.264906 0.264906 0.260378 0.260378 0.260378 0.260378 0.260378 0.260378 0.260378 0.260378 0.260378 0.260378 0.260378 0.260378
