# Output from CTFFind version 4.1.9, run on 2019-11-03 20:06:39
# Input file: stack1_bm3d_averaged_1_6.0_0_1250_half.mrc ; Number of micrographs: 1
# Pixel size: 3.000 Angstroms ; acceleration voltage: 300.0 keV ; spherical aberration: 0.00 mm ; amplitude contrast: 0.07
# Box size: 512 pixels ; min. res.: 30.0 Angstroms ; max. res.: 5.0 Angstroms ; min. def.: 5000.0 um; max. def. 50000.0 um; num. frames averaged: 1
# 6 lines per micrograph: #1 - spatial frequency (1/Angstroms); #2 - 1D rotational average of spectrum (assuming no astigmatism); #3 - 1D rotational average of spectrum; #4 - CTF fit; #5 - cross-correlation between spectrum and CTF fit; #6 - 2sigma of expected cross correlation of noise
0.000000 0.000651 0.001302 0.001953 0.002604 0.003255 0.003906 0.004557 0.005208 0.005859 0.006510 0.007161 0.007812 0.008464 0.009115 0.009766 0.010417 0.011068 0.011719 0.012370 0.013021 0.013672 0.014323 0.014974 0.015625 0.016276 0.016927 0.017578 0.018229 0.018880 0.019531 0.020182 0.020833 0.021484 0.022135 0.022786 0.023438 0.024089 0.024740 0.025391 0.026042 0.026693 0.027344 0.027995 0.028646 0.029297 0.029948 0.030599 0.031250 0.031901 0.032552 0.033203 0.033854 0.034505 0.035156 0.035807 0.036458 0.037109 0.037760 0.038411 0.039062 0.039714 0.040365 0.041016 0.041667 0.042318 0.042969 0.043620 0.044271 0.044922 0.045573 0.046224 0.046875 0.047526 0.048177 0.048828 0.049479 0.050130 0.050781 0.051432 0.052083 0.052734 0.053385 0.054036 0.054688 0.055339 0.055990 0.056641 0.057292 0.057943 0.058594 0.059245 0.059896 0.060547 0.061198 0.061849 0.062500 0.063151 0.063802 0.064453 0.065104 0.065755 0.066406 0.067057 0.067708 0.068359 0.069010 0.069661 0.070312 0.070964 0.071615 0.072266 0.072917 0.073568 0.074219 0.074870 0.075521 0.076172 0.076823 0.077474 0.078125 0.078776 0.079427 0.080078 0.080729 0.081380 0.082031 0.082682 0.083333 0.083984 0.084635 0.085286 0.085938 0.086589 0.087240 0.087891 0.088542 0.089193 0.089844 0.090495 0.091146 0.091797 0.092448 0.093099 0.093750 0.094401 0.095052 0.095703 0.096354 0.097005 0.097656 0.098307 0.098958 0.099609 0.100260 0.100911 0.101562 0.102214 0.102865 0.103516 0.104167 0.104818 0.105469 0.106120 0.106771 0.107422 0.108073 0.108724 0.109375 0.110026 0.110677 0.111328 0.111979 0.112630 0.113281 0.113932 0.114583 0.115234 0.115885 0.116536 0.117188 0.117839 0.118490 0.119141 0.119792 0.120443 0.121094 0.121745 0.122396 0.123047 0.123698 0.124349 0.125000 0.125651 0.126302 0.126953 0.127604 0.128255 0.128906 0.129557 0.130208 0.130859 0.131510 0.132161 0.132812 0.133464 0.134115 0.134766 0.135417 0.136068 0.136719 0.137370 0.138021 0.138672 0.139323 0.139974 0.140625 0.141276 0.141927 0.142578 0.143229 0.143880 0.144531 0.145182 0.145833 0.146484 0.147135 0.147786 0.148438 0.149089 0.149740 0.150391 0.151042 0.151693 0.152344 0.152995 0.153646 0.154297 0.154948 0.155599 0.156250 0.156901 0.157552 0.158203 0.158854 0.159505 0.160156 0.160807 0.161458 0.162109 0.162760 0.163411 0.164062 0.164714 0.165365 0.166016 0.166667 0.167318 0.167969 0.168620 0.169271 0.169922 0.170573 0.171224 0.171875 0.172526 0.173177 0.173828 0.174479 0.175130 0.175781 0.176432 0.177083 0.177734 0.178385 0.179036 0.179688 0.180339 0.180990 0.181641 0.182292 0.182943 0.183594 0.184245 0.184896 0.185547 0.186198 0.186849 0.187500 0.188151 0.188802 0.189453 0.190104 0.190755 0.191406 0.192057 0.192708 0.193359 0.194010 0.194661 0.195312 0.195964 0.196615 0.197266 0.197917 0.198568 0.199219 0.199870 0.200521 0.201172 0.201823 0.202474 0.203125 0.203776 0.204427 0.205078 0.205729 0.206380 0.207031 0.207682 0.208333 0.208984 0.209635 0.210286 0.210938 0.211589 0.212240 0.212891 0.213542 0.214193 0.214844 0.215495 0.216146 0.216797 0.217448 0.218099 0.218750 0.219401 0.220052 0.220703 0.221354 0.222005 0.222656 0.223307 0.223958 0.224609 0.225260 0.225911 0.226562 0.227214 0.227865 0.228516 0.229167 0.229818 0.230469 0.231120 0.231771 0.232422 0.233073 0.233724 0.234375 0.235026 0.235677
       0.34982        0.34982        0.34982        0.34982        0.34982        0.34982        0.34982        0.34982        0.34982        0.34982        0.34982        0.34982        0.34982        0.34982        0.34982        0.34982        0.34982        0.34982        0.34982        0.34982        0.34982        0.34982        0.34982        0.34982        0.34982        0.34982        0.34982        0.34982        0.34982        0.34982        0.34982        0.34982        0.34982        0.34982        0.34982        0.34982        0.34982        0.34982        0.34982        0.34982        0.34982        0.34982        0.34982        0.34982        0.34982        0.34982        0.34982        0.34982        0.34982        0.34982        0.34982        0.37514        0.54139        0.24987        0.09823       -0.00617       -0.27084       -0.10682       -0.17192       -0.21936        0.01530       -0.13802       -0.09333       -0.05813       -0.04018       -0.12829       -0.15548       -0.27615       -0.35266       -0.46626       -0.40258       -0.29900       -0.24618       -0.34991       -0.26633       -0.34659       -0.30459       -0.33746       -0.16352       -0.16678       -0.22888       -0.05889       -0.00298       -0.03675        0.08299        0.03016        0.21452        0.23832        0.34094        0.35927        0.41770        0.45666        0.52318        0.58399        0.61942        0.53703        0.50287        0.50954        0.46891        0.55021        0.46836        0.41587        0.40990        0.34179        0.29480        0.31171        0.33615        0.23257        0.19876        0.11343        0.14099        0.15045        0.18183        0.14723        0.21559        0.26297        0.30960        0.30147        0.36017        0.46844        0.40519        0.48750        0.62111        0.59726        0.53660        0.55283        0.59277        0.42361        0.48809        0.38014        0.31671        0.29513        0.26886        0.25660        0.18308        0.17866        0.14387        0.21507        0.26136        0.28766        0.35041        0.31366        0.41785        0.45652        0.46575        0.46372        0.49218        0.53694        0.48390        0.45411        0.41899        0.34181        0.33653        0.29208        0.31379        0.24531        0.23232        0.27534        0.24766        0.27194        0.32989        0.43085        0.43190        0.43312        0.41410        0.49036        0.48738        0.47177        0.45488        0.38207        0.37898        0.40915        0.38371        0.31413        0.28826        0.32453        0.29402        0.30212        0.29589        0.32797        0.36091        0.38866        0.45222        0.47880        0.38128        0.44661        0.43127        0.37348        0.30752        0.36354        0.32386        0.31427        0.33652        0.27270        0.26172        0.31892        0.33775        0.44198        0.41826        0.38450        0.38726        0.41393        0.36121        0.36357        0.33183        0.33142        0.31267        0.30423        0.29676        0.35723        0.36730        0.34596        0.35223        0.40421        0.40021        0.45944        0.40973        0.35467        0.35169        0.35592        0.33466        0.32234        0.34374        0.39045        0.35236        0.36195        0.34130        0.43477        0.37580        0.35174        0.34467        0.37621        0.37695        0.33209        0.33053        0.30131        0.32214        0.33507        0.31293        0.32758        0.34712        0.36092        0.34666        0.33985        0.30454        0.30107        0.28738        0.33491        0.32218        0.35827        0.32386        0.34641        0.36532        0.33711        0.33183        0.31612        0.28650        0.33692        0.32241        0.33001        0.32111        0.31936        0.32573        0.31845        0.34077        0.35726        0.35665        0.33714        0.29666        0.33455        0.30844        0.34011        0.33144        0.27005        0.32164        0.30173        0.33562        0.32468        0.39170        0.33199        0.31112        0.26715        0.31541        0.38544        0.35137        0.31961        0.33655        0.31612        0.32622        0.32405        0.32586        0.29973        0.31506        0.26919        0.28188        0.31457        0.30033        0.29982        0.31255        0.24236        0.31141        0.34257        0.36419        0.35363        0.31483        0.31918        0.28795        0.30812        0.31141        0.28848        0.32283        0.28248        0.30195        0.33509        0.37133        0.35462        0.28669        0.27797        0.33158        0.30876        0.31664        0.35516        0.36506        0.28780        0.28365        0.32648        0.32284        0.26355        0.21851        0.23496        0.26519        0.30241        0.31497        0.27270        0.34132        0.29575        0.25902        0.28840        0.28615        0.21502        0.27323        0.31812        0.26451        0.20130        0.22693        0.31317        0.41829        0.30517        0.24209        0.15512        0.22634        0.27970        0.28485        0.40489        0.22920        0.16638        0.26204        0.31477        0.28426        0.18585       -0.02965       -0.57979       -0.92065
3.139025 3.104558 3.070284 3.036202 3.002313 2.968615 2.935110 2.901797 2.868676 2.835748 2.803011 2.770467 2.738115 2.705955 2.673988 2.642213 2.610630 2.579239 2.548040 2.517034 2.486220 2.455598 2.425168 2.394931 2.364885 2.335032 2.305372 2.275903 2.246626 2.217542 2.188650 2.159951 2.131443 2.103128 2.075005 2.047074 2.019335 1.991789 1.964435 1.937273 1.910303 1.883525 1.856940 1.830547 1.804346 1.778337 1.752521 1.726897 1.701465 1.676225 1.651178 1.585743 1.913621 1.648048 1.187445 1.034932 0.385042 0.890872 0.510370 0.632343 0.898961 0.674915 0.602626 0.753848 0.687926 0.623157 0.495432 0.331212 0.147211 -0.024159 -0.019773 0.053295 0.399437 -0.029155 0.151889 0.030492 0.099544 -0.062798 0.236814 0.185812 0.092861 0.283550 0.445731 0.278024 0.471022 0.381890 0.706029 0.602628 0.835499 0.804355 0.836654 1.032850 0.929192 1.179879 1.130979 1.085949 0.917595 0.949126 0.900252 0.893744 0.904459 0.743737 0.671743 0.618178 0.562756 0.468864 0.540232 0.416546 0.313338 0.180929 0.136759 0.173098 0.222466 0.152902 0.169191 0.304652 0.335305 0.351805 0.426988 0.467607 0.529632 0.391160 0.774431 0.757160 0.667111 0.608259 0.710053 0.482367 0.436303 0.436599 0.193793 0.219175 0.084086 0.175056 -0.024145 -0.017430 -0.088850 -0.086822 0.124870 0.033036 0.133109 0.172518 0.193446 0.316235 0.337464 0.318569 0.359229 0.409911 0.383475 0.292402 0.273994 0.155983 0.135853 0.060110 0.020440 0.012810 -0.094328 -0.030730 -0.010653 -0.074384 -0.029767 0.133549 0.278876 0.172110 0.229671 0.211496 0.443869 0.267943 0.301148 0.280579 0.160219 0.129013 0.303203 0.031295 0.056410 0.025476 0.076547 0.009687 0.084694 -0.005864 0.145490 0.004354 0.231714 0.286787 0.242520 0.176952 0.218519 0.157740 0.051459 0.076949 0.094058 -0.006259 0.018483 0.055918 -0.113481 -0.046746 0.010254 0.100068 0.255202 0.111967 0.120727 0.117285 0.123383 0.051934 0.054133 -0.016062 0.019348 -0.043355 -0.044343 0.001610 0.052947 0.065648 -0.001402 0.055864 0.134311 0.111129 0.255540 0.052750 0.044564 0.044863 0.007022 0.023448 -0.015475 0.061807 0.107656 0.012046 0.044834 0.034718 0.193583 0.025252 0.018110 0.026748 0.059815 0.058644 -0.027905 0.006586 -0.059163 -0.022365 0.006217 -0.022444 -0.026732 0.042297 -0.013025 0.015856 -0.025437 -0.087378 -0.048177 -0.079330 -0.023124 -0.019276 0.017451 -0.017993 0.006429 0.050702 -0.018437 0.024496 -0.037385 -0.053116 0.029781 -0.018641 0.027481 0.009112 -0.000642 0.005901 -0.010921 0.064044 0.069484 0.087291 0.000928 0.000704 0.028522 0.017678 0.051696 0.041848 -0.055610 0.044173 0.012720 0.045602 0.015291 0.148433 0.024478 -0.029905 -0.068270 0.036578 0.141761 0.030139 0.005965 0.019655 0.075556 0.028049 0.012775 0.029600 0.005447 0.015835 -0.059204 -0.044010 0.023685 -0.005647 -0.019145 -0.051059 -0.158521 0.033441 0.059183 0.059940 0.021843 0.003161 -0.021445 -0.041468 -0.044914 -0.059297 -0.053183 -0.029264 -0.117637 -0.065982 0.012714 0.044857 0.004380 -0.084127 -0.152842 -0.075463 -0.044857 -0.115162 0.018997 0.004244 -0.108045 -0.090417 -0.037035 -0.049450 -0.098817 -0.148112 -0.151937 -0.008082 0.037195 -0.035414 -0.077081 0.105934 0.041520 -0.192718 0.058992 0.005266 -0.108638 0.041186 0.093439 0.002321 -0.071642 -0.016215 0.059263 0.263670 0.089411 0.076277 -0.202559 -0.001175 0.183598 0.093858 0.349811 0.298591 0.262414 0.455914 0.555752 0.301175 0.268396 -0.037491 -1.420726
0.072396 0.072906 0.074435 0.076983 0.080549 0.085132 0.090732 0.097346 0.104972 0.113607 0.123248 0.133891 0.145529 0.158157 0.171765 0.186345 0.201886 0.218373 0.235792 0.254123 0.273347 0.293440 0.314375 0.336120 0.358642 0.381902 0.405856 0.430458 0.455654 0.481386 0.507591 0.534198 0.561133 0.588313 0.615649 0.643047 0.670404 0.697612 0.724553 0.751106 0.777139 0.802516 0.827093 0.850720 0.873240 0.894492 0.914309 0.932518 0.948944 0.963409 0.975731 0.985728 0.993220 0.998025 0.999967 0.998871 0.994571 0.986907 0.975730 0.960901 0.942297 0.919809 0.893346 0.862838 0.828238 0.789525 0.746702 0.699803 0.648897 0.594081 0.535491 0.473301 0.407721 0.339004 0.267441 0.193367 0.117158 0.039230 0.039959 0.119912 0.200095 0.279939 0.358843 0.436179 0.511294 0.583518 0.652168 0.716553 0.775987 0.829790 0.877299 0.917878 0.950927 0.975890 0.992263 0.999611 0.997571 0.985863 0.964303 0.932808 0.891403 0.840234 0.779568 0.709800 0.631458 0.545200 0.451816 0.352228 0.247480 0.138737 0.027267 0.085563 0.198303 0.309444 0.417427 0.520672 0.617598 0.706652 0.786331 0.855213 0.911985 0.955472 0.984664 0.998742 0.997108 0.979403 0.945529 0.895665 0.830282 0.750143 0.656314 0.550150 0.433293 0.307647 0.175364 0.038798 0.099516 0.236918 0.370666 0.497991 0.616160 0.722531 0.814622 0.890171 0.947200 0.984072 0.999550 0.992842 0.963645 0.912170 0.839167 0.745930 0.634289 0.506590 0.365657 0.214745 0.057469 0.102273 0.260390 0.412706 0.555065 0.683453 0.794111 0.883662 0.949216 0.988480 0.999852 0.982494 0.936394 0.862401 0.762232 0.638458 0.494457 0.334341 0.162850 0.014771 0.192925 0.365840 0.527751 0.673097 0.796720 0.894061 0.961341 0.995731 0.995480 0.960032 0.890082 0.787603 0.655825 0.499148 0.323036 0.133831 0.061452 0.255375 0.440365 0.608996 0.754314 0.870119 0.951261 0.993888 0.995652 0.955865 0.875586 0.757633 0.606531 0.428362 0.230553 0.021590 0.189336 0.392718 0.579166 0.739851 0.866932 0.953969 0.996271 0.991189 0.938305 0.839531 0.699088 0.523370 0.320691 0.100924 0.124963 0.345431 0.548967 0.724687 0.862938 0.955854 0.997841 0.985952 0.920133 0.803312 0.641330 0.442694 0.218180 0.019721 0.257484 0.481298 0.677879 0.835276 0.943626 0.995810 0.987972 0.919848 0.794887 0.620146 0.405946 0.165313 0.086774 0.334303 0.561228 0.752530 0.895227 0.979308 0.998471 0.950666 0.838343 0.668418 0.451905 0.203271 0.060490 0.320989 0.559716 0.759361 0.905112 0.985784 0.994748 0.930539 0.797100 0.603638 0.364049 0.095997 0.180351 0.443817 0.673836 0.852078 0.963964 0.999911 0.956235 0.835591 0.646924 0.404885 0.128787 0.158909 0.434373 0.674375 0.858283 0.969879 0.998859 0.941870 0.802973 0.593466 0.331063 0.038467 0.258526 0.533298 0.760779 0.919793 0.995085 0.978877 0.871762 0.682852 0.429111 0.133931 0.174956 0.468044 0.716880 0.896841 0.989659 0.985352 0.883416 0.693077 0.432604 0.127636 0.191245 0.491549 0.742187 0.916726 0.996263 0.971565 0.844274 0.626953 0.342001 0.019432 0.306207 0.599489 0.828006 0.965990 0.997324 0.917551 0.734621 0.468259 0.147961 0.190165 0.507417 0.766942 0.938052 0.999951 0.944399 0.776943 0.516538 0.193563 0.153626 0.483189 0.754814 0.934720 0.999948 0.941434 0.765420 0.492973 0.157636 0.198605 0.530501 0.795278 0.958235 0.997388 0.906604 0.696710 0.394400 0.039003 0.322547 0.641823 0.875442
1.000000 1.000000 1.000000 1.000000 1.000000 1.000000 1.000000 1.000000 1.000000 1.000000 1.000000 1.000000 1.000000 1.000000 1.000000 1.000000 1.000000 1.000000 1.000000 1.000000 1.000000 1.000000 1.000000 1.000000 1.000000 1.000000 1.000000 1.000000 1.000000 1.000000 1.000000 1.000000 1.000000 1.000000 1.000000 1.000000 1.000000 1.000000 1.000000 1.000000 1.000000 1.000000 1.000000 1.000000 1.000000 1.000000 1.000000 1.000000 1.000000 1.000000 1.000000 1.000000 0.825985 0.825985 0.825985 0.820553 0.820553 0.820553 0.820553 0.820553 0.820553 0.820553 0.820553 0.820553 0.820553 0.820553 0.820553 0.820553 0.820553 0.820553 0.820553 0.820553 0.820553 0.820553 0.820553 0.820553 0.820553 0.820553 0.820553 0.820553 0.820553 0.820553 0.820553 0.820553 0.820553 0.820553 0.820553 0.820553 0.820553 0.820553 0.820553 0.820553 0.820553 0.820553 0.820553 0.820553 0.851647 0.858968 0.861785 0.864731 0.866123 0.863467 0.862269 0.861766 0.861609 0.862561 0.868669 0.893811 0.910754 0.915255 0.928634 0.932386 0.937603 0.940593 0.949334 0.953038 0.954558 0.953450 0.953820 0.955869 0.955936 0.945593 0.943664 0.943965 0.958162 0.947196 0.943188 0.942018 0.940373 0.936972 0.938064 0.937807 0.935176 0.935607 0.930121 0.930833 0.931322 0.929222 0.928035 0.911052 0.911984 0.911306 0.914249 0.893169 0.888129 0.876571 0.862582 0.883301 0.876264 0.858440 0.857301 0.846379 0.848949 0.849086 0.847169 0.840718 0.839392 0.835942 0.829627 0.830577 0.827476 0.836716 0.836052 0.836502 0.826155 0.808007 0.786320 0.771271 0.770364 0.774134 0.777316 0.781097 0.782362 0.779199 0.777183 0.773997 0.771076 0.780905 0.783412 0.780434 0.776228 0.774817 0.753052 0.750846 0.742637 0.724186 0.710819 0.708170 0.709162 0.686968 0.677917 0.680322 0.685596 0.690761 0.700926 0.695225 0.693610 0.667285 0.641985 0.611547 0.624423 0.631533 0.609638 0.602097 0.579823 0.613447 0.624930 0.640492 0.657831 0.660756 0.656692 0.628902 0.587612 0.588627 0.587014 0.588682 0.587732 0.578879 0.581875 0.606337 0.578283 0.574018 0.566482 0.563298 0.571237 0.586144 0.567422 0.561181 0.532779 0.507345 0.480319 0.474607 0.433462 0.428582 0.424189 0.428907 0.390480 0.389516 0.404882 0.423844 0.421807 0.429225 0.418478 0.407615 0.367599 0.338898 0.333216 0.319371 0.314079 0.283968 0.251670 0.237979 0.249395 0.257245 0.302810 0.306041 0.299599 0.273074 0.279074 0.299448 0.331072 0.336687 0.337656 0.315173 0.297537 0.251743 0.246987 0.295461 0.330042 0.308056 0.293608 0.280760 0.275055 0.246953 0.240483 0.176000 0.123222 0.083631 0.086985 0.094088 0.083606 0.058889 0.021111 0.038073 0.052493 0.088206 0.069559 0.059887 0.003414 0.003749 -0.014399 -0.004640 -0.037353 -0.077408 -0.048899 -0.034010 -0.063902 -0.081316 -0.125730 -0.106030 -0.124779 -0.127393 -0.125096 -0.130226 -0.161223 -0.144968 -0.141261 -0.118729 -0.129758 -0.127220 -0.120354 -0.129306 -0.204359 -0.244925 -0.235047 -0.238498 -0.235445 -0.236059 -0.241759 -0.251223 -0.247483 -0.253138 -0.200094 -0.228838 -0.243504 -0.246353 -0.248079 -0.273447 -0.226353 -0.203425 -0.209676 -0.234141 -0.230350 -0.230350 -0.230350 -0.230350 -0.230350 -0.230350 -0.220527 -0.220527 -0.220527 -0.220527 -0.220527 -0.220527 -0.220527 -0.220527 -0.220527 -0.154531 -0.154531 -0.154531 -0.154531 -0.154531 -0.154531 -0.154531 -0.154531 -0.154531 -0.154531 -0.154531 -0.154531 -0.154531 -0.154531 -0.154531 -0.154531
0.000000 0.000000 0.000000 0.000000 0.000000 0.000000 0.000000 0.000000 0.000000 0.000000 0.000000 0.000000 0.000000 0.000000 0.000000 0.000000 0.000000 0.000000 0.000000 0.000000 0.000000 0.000000 0.000000 0.000000 0.000000 0.000000 0.000000 0.000000 0.000000 0.000000 0.000000 0.000000 0.000000 0.000000 0.000000 0.000000 0.000000 0.000000 0.000000 0.000000 0.000000 0.000000 0.000000 0.000000 0.000000 0.000000 0.000000 0.000000 0.000000 0.000000 0.000000 0.000000 0.180334 0.180334 0.180334 0.199007 0.199007 0.199007 0.199007 0.199007 0.199007 0.199007 0.199007 0.199007 0.199007 0.199007 0.199007 0.199007 0.199007 0.199007 0.199007 0.199007 0.199007 0.199007 0.199007 0.199007 0.199007 0.199007 0.199007 0.199007 0.199007 0.199007 0.199007 0.199007 0.199007 0.199007 0.199007 0.199007 0.199007 0.199007 0.199007 0.199007 0.199007 0.199007 0.199007 0.199007 0.230940 0.230940 0.230940 0.230940 0.230940 0.230940 0.230940 0.230940 0.230940 0.230940 0.230940 0.230940 0.230940 0.230940 0.230940 0.230940 0.230940 0.230940 0.230940 0.230940 0.230940 0.230940 0.230940 0.230940 0.230940 0.230940 0.230940 0.230940 0.244339 0.244339 0.244339 0.244339 0.244339 0.244339 0.244339 0.244339 0.244339 0.244339 0.244339 0.244339 0.244339 0.244339 0.244339 0.244339 0.244339 0.244339 0.244339 0.244339 0.244339 0.244339 0.244339 0.256074 0.256074 0.256074 0.256074 0.256074 0.256074 0.256074 0.256074 0.256074 0.256074 0.256074 0.256074 0.256074 0.256074 0.256074 0.256074 0.256074 0.256074 0.256074 0.256074 0.256074 0.256074 0.256074 0.256074 0.256074 0.256074 0.256074 0.256074 0.256074 0.256074 0.256074 0.256074 0.256074 0.256074 0.256074 0.256074 0.256074 0.264906 0.264906 0.264906 0.264906 0.264906 0.264906 0.264906 0.264906 0.264906 0.264906 0.264906 0.264906 0.264906 0.264906 0.264906 0.264906 0.264906 0.264906 0.264906 0.264906 0.264906 0.264906 0.264906 0.264906 0.264906 0.264906 0.264906 0.264906 0.264906 0.264906 0.264906 0.264906 0.264906 0.264906 0.264906 0.264906 0.264906 0.264906 0.264906 0.264906 0.264906 0.264906 0.264906 0.264906 0.264906 0.264906 0.264906 0.264906 0.264906 0.264906 0.264906 0.264906 0.264906 0.264906 0.264906 0.264906 0.264906 0.264906 0.269680 0.269680 0.269680 0.269680 0.269680 0.269680 0.269680 0.269680 0.269680 0.269680 0.269680 0.269680 0.264906 0.264906 0.264906 0.264906 0.264906 0.264906 0.264906 0.264906 0.264906 0.264906 0.264906 0.264906 0.269680 0.269680 0.269680 0.269680 0.269680 0.269680 0.269680 0.269680 0.269680 0.269680 0.269680 0.264906 0.264906 0.264906 0.264906 0.264906 0.264906 0.264906 0.264906 0.264906 0.264906 0.264906 0.256074 0.256074 0.256074 0.256074 0.256074 0.256074 0.256074 0.256074 0.256074 0.256074 0.256074 0.264906 0.264906 0.264906 0.264906 0.264906 0.264906 0.264906 0.264906 0.264906 0.264906 0.260378 0.260378 0.260378 0.260378 0.260378 0.260378 0.260378 0.260378 0.260378 0.260378 0.264906 0.264906 0.264906 0.264906 0.264906 0.264906 0.264906 0.264906 0.264906 0.251976 0.251976 0.251976 0.251976 0.251976 0.251976 0.251976 0.251976 0.251976 0.251976 0.256074 0.256074 0.256074 0.256074 0.256074 0.256074 0.256074 0.256074 0.256074 0.269680 0.269680 0.269680 0.269680 0.269680 0.269680 0.269680 0.269680 0.269680 0.269680 0.269680 0.269680 0.269680 0.269680 0.269680 0.269680
