# Output from CTFFind version 4.1.9, run on 2019-11-03 19:00:52
# Input file: stack6_bm3d_averaged_1_2.25_0_3000_half.mrc ; Number of micrographs: 1
# Pixel size: 3.000 Angstroms ; acceleration voltage: 300.0 keV ; spherical aberration: 0.00 mm ; amplitude contrast: 0.07
# Box size: 512 pixels ; min. res.: 30.0 Angstroms ; max. res.: 5.0 Angstroms ; min. def.: 5000.0 um; max. def. 50000.0 um; num. frames averaged: 1
# 6 lines per micrograph: #1 - spatial frequency (1/Angstroms); #2 - 1D rotational average of spectrum (assuming no astigmatism); #3 - 1D rotational average of spectrum; #4 - CTF fit; #5 - cross-correlation between spectrum and CTF fit; #6 - 2sigma of expected cross correlation of noise
0.000000 0.000651 0.001302 0.001953 0.002604 0.003255 0.003906 0.004557 0.005208 0.005859 0.006510 0.007161 0.007812 0.008464 0.009115 0.009766 0.010417 0.011068 0.011719 0.012370 0.013021 0.013672 0.014323 0.014974 0.015625 0.016276 0.016927 0.017578 0.018229 0.018880 0.019531 0.020182 0.020833 0.021484 0.022135 0.022786 0.023438 0.024089 0.024740 0.025391 0.026042 0.026693 0.027344 0.027995 0.028646 0.029297 0.029948 0.030599 0.031250 0.031901 0.032552 0.033203 0.033854 0.034505 0.035156 0.035807 0.036458 0.037109 0.037760 0.038411 0.039062 0.039714 0.040365 0.041016 0.041667 0.042318 0.042969 0.043620 0.044271 0.044922 0.045573 0.046224 0.046875 0.047526 0.048177 0.048828 0.049479 0.050130 0.050781 0.051432 0.052083 0.052734 0.053385 0.054036 0.054688 0.055339 0.055990 0.056641 0.057292 0.057943 0.058594 0.059245 0.059896 0.060547 0.061198 0.061849 0.062500 0.063151 0.063802 0.064453 0.065104 0.065755 0.066406 0.067057 0.067708 0.068359 0.069010 0.069661 0.070312 0.070964 0.071615 0.072266 0.072917 0.073568 0.074219 0.074870 0.075521 0.076172 0.076823 0.077474 0.078125 0.078776 0.079427 0.080078 0.080729 0.081380 0.082031 0.082682 0.083333 0.083984 0.084635 0.085286 0.085938 0.086589 0.087240 0.087891 0.088542 0.089193 0.089844 0.090495 0.091146 0.091797 0.092448 0.093099 0.093750 0.094401 0.095052 0.095703 0.096354 0.097005 0.097656 0.098307 0.098958 0.099609 0.100260 0.100911 0.101562 0.102214 0.102865 0.103516 0.104167 0.104818 0.105469 0.106120 0.106771 0.107422 0.108073 0.108724 0.109375 0.110026 0.110677 0.111328 0.111979 0.112630 0.113281 0.113932 0.114583 0.115234 0.115885 0.116536 0.117188 0.117839 0.118490 0.119141 0.119792 0.120443 0.121094 0.121745 0.122396 0.123047 0.123698 0.124349 0.125000 0.125651 0.126302 0.126953 0.127604 0.128255 0.128906 0.129557 0.130208 0.130859 0.131510 0.132161 0.132812 0.133464 0.134115 0.134766 0.135417 0.136068 0.136719 0.137370 0.138021 0.138672 0.139323 0.139974 0.140625 0.141276 0.141927 0.142578 0.143229 0.143880 0.144531 0.145182 0.145833 0.146484 0.147135 0.147786 0.148438 0.149089 0.149740 0.150391 0.151042 0.151693 0.152344 0.152995 0.153646 0.154297 0.154948 0.155599 0.156250 0.156901 0.157552 0.158203 0.158854 0.159505 0.160156 0.160807 0.161458 0.162109 0.162760 0.163411 0.164062 0.164714 0.165365 0.166016 0.166667 0.167318 0.167969 0.168620 0.169271 0.169922 0.170573 0.171224 0.171875 0.172526 0.173177 0.173828 0.174479 0.175130 0.175781 0.176432 0.177083 0.177734 0.178385 0.179036 0.179688 0.180339 0.180990 0.181641 0.182292 0.182943 0.183594 0.184245 0.184896 0.185547 0.186198 0.186849 0.187500 0.188151 0.188802 0.189453 0.190104 0.190755 0.191406 0.192057 0.192708 0.193359 0.194010 0.194661 0.195312 0.195964 0.196615 0.197266 0.197917 0.198568 0.199219 0.199870 0.200521 0.201172 0.201823 0.202474 0.203125 0.203776 0.204427 0.205078 0.205729 0.206380 0.207031 0.207682 0.208333 0.208984 0.209635 0.210286 0.210938 0.211589 0.212240 0.212891 0.213542 0.214193 0.214844 0.215495 0.216146 0.216797 0.217448 0.218099 0.218750 0.219401 0.220052 0.220703 0.221354 0.222005 0.222656 0.223307 0.223958 0.224609 0.225260 0.225911 0.226562 0.227214 0.227865 0.228516 0.229167 0.229818 0.230469 0.231120 0.231771 0.232422 0.233073 0.233724 0.234375 0.235026 0.235677
       0.30550        0.30550        0.30550        0.30550        0.30550        0.30550        0.30550        0.30550        0.30550        0.30550        0.30550        0.30550        0.30550        0.30550        0.30550        0.30550        0.30550        0.30550        0.30550        0.30550        0.30550        0.30550        0.30550        0.30550        0.30550        0.30550        0.30550        0.30550        0.30550        0.30550        0.30550        0.30550        0.30550        0.30550        0.30550        0.30550        0.30550        0.30550        0.30550        0.30550        0.30550        0.30550        0.30550        0.30550        0.30550        0.30550        0.30550        0.30550        0.30550        0.30550        0.30550        0.62805        0.79412        0.39612        0.28917        0.17375       -0.11082        0.11600        0.01085        0.03302        0.11139        0.34500        0.41633        0.38386        0.21620       -0.01959        0.03771        0.07095       -0.17403       -0.17882       -0.08867       -0.11382       -0.29925       -0.19146       -0.31382       -0.26696       -0.28337       -0.40717       -0.46909       -0.46333       -0.41087       -0.34741       -0.42621       -0.34639       -0.40939       -0.35213       -0.27476       -0.20522       -0.19413       -0.11722       -0.07080        0.03890        0.07725        0.24363        0.30397        0.37738        0.39722        0.51154        0.57687        0.60864        0.72049        0.68268        0.73703        0.64033        0.65988        0.68093        0.62552        0.61778        0.61553        0.41725        0.38177        0.35262        0.33104        0.21829        0.13135        0.06051        0.05392        0.00009       -0.07922       -0.01633       -0.03811       -0.07833        0.06716        0.16912        0.26078        0.30879        0.32550        0.40931        0.51639        0.55749        0.51334        0.66334        0.55067        0.52132        0.59762        0.61074        0.52980        0.47635        0.41293        0.38094        0.23787        0.19249        0.12346        0.12368        0.08203        0.05953        0.08541        0.14076        0.13732        0.15662        0.22010        0.24419        0.32941        0.43718        0.46615        0.47887        0.51630        0.57357        0.54968        0.52298        0.40714        0.39744        0.35406        0.27201        0.23934        0.21507        0.18116        0.18499        0.17166        0.16986        0.13552        0.19443        0.23960        0.33727        0.38080        0.40027        0.46056        0.51685        0.44795        0.47615        0.42297        0.40826        0.39013        0.36975        0.28307        0.24998        0.19446        0.22120        0.22382        0.20118        0.21030        0.20424        0.24523        0.32020        0.39953        0.37825        0.37205        0.39230        0.44821        0.44695        0.42637        0.35376        0.32085        0.28571        0.28393        0.25450        0.21475        0.28219        0.29839        0.29718        0.30473        0.31089        0.31104        0.36758        0.35219        0.35380        0.36208        0.32285        0.32420        0.30762        0.28771        0.27061        0.25756        0.22676        0.27054        0.26629        0.29714        0.31049        0.34238        0.35521        0.31855        0.30726        0.34642        0.35623        0.26146        0.29561        0.28651        0.23747        0.22432        0.27619        0.25970        0.26307        0.30122        0.29921        0.32477        0.33555        0.35404        0.30469        0.31503        0.30509        0.28413        0.26393        0.24110        0.22924        0.24969        0.27404        0.29836        0.29149        0.28487        0.31452        0.33699        0.27784        0.30200        0.27584        0.26177        0.23553        0.23629        0.24292        0.26529        0.30311        0.26588        0.29964        0.28323        0.27772        0.30277        0.27022        0.31790        0.31604        0.29782        0.25995        0.26156        0.26214        0.25611        0.30928        0.30399        0.33691        0.30391        0.29085        0.27509        0.31268        0.23940        0.20282        0.27234        0.27947        0.26898        0.27186        0.29752        0.29165        0.34985        0.30313        0.24614        0.22453        0.23076        0.28074        0.29495        0.29296        0.24817        0.26297        0.26101        0.29647        0.27152        0.23749        0.26887        0.25589        0.29574        0.23314        0.27281        0.33029        0.29584        0.22217        0.25572        0.28260        0.29400        0.22068        0.24173        0.25474        0.26619        0.28362        0.35905        0.28740        0.26744        0.27025        0.26190        0.20610        0.17980        0.22654        0.22589        0.20582        0.19254        0.21211        0.25548        0.24000        0.24888        0.21704        0.17704        0.21700        0.21951        0.17777        0.17701        0.20199        0.22217        0.16104        0.05241        0.16362        0.15544        0.10099        0.18521        0.07263        0.10451        0.14150       -0.20711       -0.48230       -0.86765
2.859921 2.831680 2.803584 2.775634 2.747829 2.720170 2.692656 2.665287 2.638064 2.610987 2.584055 2.557269 2.530628 2.504132 2.477782 2.451578 2.425519 2.399605 2.373837 2.348214 2.322737 2.297406 2.272219 2.247179 2.222284 2.197534 2.172930 2.148471 2.124158 2.099990 2.075968 2.052091 2.028360 2.004774 1.981334 1.958039 1.934889 1.911885 1.889027 1.866314 1.843747 1.821325 1.799048 1.776917 1.754932 1.733092 1.711397 1.689848 1.668445 1.647187 1.626074 1.932385 2.259372 1.679973 1.714952 1.369658 0.926498 1.202788 1.049926 1.089118 1.014197 1.522150 1.511530 1.531350 1.265008 0.941248 0.808126 1.019690 0.717712 0.477073 0.594444 0.673645 0.410979 0.479051 0.313689 0.338647 0.248845 0.167923 -0.050736 0.010954 0.040305 0.060281 0.045472 0.118818 -0.048741 0.020118 0.102596 0.220863 0.265061 0.244362 0.340663 0.573121 0.432940 0.710470 0.846604 0.893054 0.899676 1.127872 1.128001 1.191031 1.320496 1.204303 1.382833 1.178265 1.122931 1.305635 1.122594 1.067968 1.154797 0.871439 0.718565 0.669872 0.671524 0.475204 0.394348 0.268963 0.205871 0.107997 -0.023780 0.114575 0.003782 -0.069829 0.105823 0.262463 0.329530 0.457126 0.471185 0.535745 0.693251 0.770059 0.621199 0.948417 0.797229 0.661857 0.753086 0.767698 0.705245 0.667662 0.454937 0.529696 0.260362 0.180093 0.116427 -0.008994 0.013482 -0.080866 -0.035853 -0.019820 0.065498 -0.074408 0.230104 0.130541 0.191901 0.379240 0.394567 0.505942 0.410644 0.575947 0.639341 0.478448 0.391136 0.326138 0.312099 0.145661 0.109829 0.032646 0.059319 -0.017157 -0.013538 -0.032912 -0.101528 -0.017556 0.003564 0.109173 0.270705 0.213467 0.348309 0.357533 0.402232 0.387759 0.427606 0.347525 0.217918 0.343043 0.163751 0.167107 -0.003182 0.054384 0.060245 -0.000672 0.002384 -0.002835 0.047514 0.106867 0.243198 0.295053 0.224189 0.225512 0.378669 0.345534 0.342744 0.242763 0.164326 0.156587 0.100662 0.095842 0.022366 0.017186 0.147981 0.054012 0.168949 0.087713 0.123617 0.199498 0.200672 0.189235 0.185227 0.220360 0.121812 0.154090 0.102384 0.079420 0.101499 -0.029589 0.057986 0.083021 0.045593 0.138143 0.117218 0.202224 0.191064 0.112672 0.125082 0.226215 0.125207 0.064928 0.114764 0.037233 0.025561 0.005905 0.081282 0.051504 0.029813 0.135014 0.100842 0.129376 0.159124 0.161104 0.134183 0.094296 0.108588 0.074886 0.024429 0.013394 0.006034 0.010031 0.067990 0.110412 0.084110 0.047127 0.107599 0.126091 0.019133 0.088443 0.042283 0.004074 -0.019704 -0.021990 -0.018922 0.063105 0.063668 -0.010518 0.073872 0.055057 0.013012 0.073490 0.011705 0.064011 0.090769 0.014009 0.006284 -0.017688 0.017433 -0.014426 0.063099 0.064494 0.095545 0.014433 0.106366 0.010190 0.088150 -0.081815 -0.047641 0.011396 0.017978 0.033993 -0.019382 0.074114 0.039591 0.111160 0.006777 -0.049982 -0.068094 -0.084699 0.068299 0.011041 0.041077 -0.050198 -0.025475 -0.022891 0.049522 -0.004709 -0.048472 0.013896 -0.061057 0.060098 -0.060185 0.037327 0.100640 0.026996 -0.055498 0.042708 0.036387 0.039369 -0.073601 0.002169 -0.013988 0.076682 0.089414 0.169494 0.063241 0.039648 0.071293 0.071356 -0.052297 -0.019721 0.030621 0.045709 -0.013034 -0.008907 0.039532 0.131583 0.030405 0.185515 0.027914 0.024781 0.078232 0.118734 -0.015032 0.051174 0.041168 0.163632 0.065041 -0.005000 0.230853 0.222349 0.145088 0.317207 0.147229 0.105299 0.301239 -0.293284 -1.227276
0.072396 0.072835 0.074150 0.076341 0.079408 0.083351 0.088168 0.093858 0.100420 0.107851 0.116150 0.125313 0.135336 0.146214 0.157944 0.170517 0.183927 0.198164 0.213218 0.229078 0.245730 0.263157 0.281343 0.300266 0.319906 0.340235 0.361227 0.382849 0.405068 0.427844 0.451136 0.474900 0.499083 0.523633 0.548491 0.573594 0.598873 0.624256 0.649665 0.675017 0.700224 0.725192 0.749823 0.774013 0.797653 0.820630 0.842824 0.864113 0.884369 0.903461 0.921253 0.937607 0.952382 0.965434 0.976621 0.985795 0.992813 0.997530 0.999805 0.999498 0.996476 0.990608 0.981772 0.969854 0.954748 0.936359 0.914606 0.889420 0.860748 0.828555 0.792822 0.753554 0.710775 0.664532 0.614897 0.561970 0.505875 0.446766 0.384827 0.320269 0.253337 0.184304 0.113475 0.041185 0.032199 0.106285 0.180648 0.254842 0.328394 0.400809 0.471575 0.540164 0.606035 0.668641 0.727432 0.781860 0.831384 0.875478 0.913633 0.945368 0.970232 0.987816 0.997754 0.999734 0.993503 0.978875 0.955734 0.924043 0.883847 0.835282 0.778573 0.714040 0.642101 0.563273 0.478168 0.387497 0.292063 0.192758 0.090558 0.013487 0.118258 0.222583 0.325243 0.424993 0.520570 0.610714 0.694183 0.769774 0.836337 0.892802 0.938191 0.971643 0.992431 0.999978 0.993877 0.973906 0.940036 0.892448 0.831538 0.757921 0.672433 0.576127 0.470268 0.356322 0.235936 0.110929 0.016746 0.145016 0.271731 0.394692 0.511691 0.620556 0.719186 0.805599 0.877979 0.934709 0.974422 0.996034 0.998782 0.982250 0.946397 0.891570 0.818521 0.728400 0.622754 0.503506 0.372932 0.233623 0.088443 0.059528 0.207055 0.350818 0.487483 0.613783 0.726600 0.823048 0.900550 0.956916 0.990414 0.999832 0.984529 0.944475 0.880277 0.793182 0.685076 0.558453 0.416374 0.262399 0.100513 0.064974 0.229537 0.388556 0.537445 0.671791 0.787489 0.880872 0.948845 0.988994 0.999685 0.980145 0.930515 0.851880 0.746264 0.616603 0.466678 0.301021 0.124788 0.056382 0.236554 0.409679 0.569803 0.711274 0.828952 0.918406 0.976097 0.999534 0.987400 0.939636 0.857489 0.743503 0.601469 0.436320 0.253980 0.061163 0.134858 0.326521 0.506266 0.666838 0.801587 0.904757 0.971755 0.999366 0.985940 0.931505 0.837814 0.708327 0.548113 0.363672 0.162702 0.046211 0.253952 0.451262 0.629160 0.779361 0.894672 0.969364 0.999477 0.983059 0.920319 0.813677 0.667706 0.488978 0.285792 0.067817 0.154354 0.369710 0.567360 0.737106 0.869967 0.958694 0.998182 0.985805 0.921618 0.808427 0.651715 0.459409 0.241527 0.009669 0.223577 0.445302 0.643008 0.805314 0.922640 0.987797 0.996470 0.947540 0.843231 0.689070 0.493637 0.268126 0.025748 0.219037 0.451359 0.656840 0.822524 0.937693 0.994608 0.989074 0.920793 0.793474 0.614704 0.395525 0.149828 0.106529 0.356705 0.583980 0.772891 0.910308 0.986378 0.995284 0.935744 0.811201 0.629699 0.403416 0.147907 0.118940 0.378131 0.610909 0.800136 0.931572 0.995003 0.985084 0.901850 0.750834 0.542776 0.292914 0.019928 0.255433 0.511903 0.729357 0.890409 0.981850 0.995789 0.930396 0.790189 0.585793 0.333228 0.052687 0.233022 0.500310 0.726769 0.893076 0.984684 0.993159 0.917038 0.762094 0.540992 0.272325 0.020874 0.313083 0.578493 0.793294 0.937857 0.998579 0.969247 0.851749 0.656071 0.399530 0.105331 0.199476 0.486483 0.728527 0.902338 0.990798 0.984729 0.883921 0.697339 0.442415 0.143526 0.170286 0.468105 0.720170 0.900895
1.000000 1.000000 1.000000 1.000000 1.000000 1.000000 1.000000 1.000000 1.000000 1.000000 1.000000 1.000000 1.000000 1.000000 1.000000 1.000000 1.000000 1.000000 1.000000 1.000000 1.000000 1.000000 1.000000 1.000000 1.000000 1.000000 1.000000 1.000000 1.000000 1.000000 1.000000 1.000000 1.000000 1.000000 1.000000 1.000000 1.000000 1.000000 1.000000 1.000000 1.000000 1.000000 1.000000 1.000000 1.000000 1.000000 1.000000 1.000000 1.000000 1.000000 1.000000 1.000000 0.835317 0.835317 0.835317 0.835317 0.835317 0.835317 0.835317 0.813899 0.813899 0.813899 0.813899 0.813899 0.813899 0.813899 0.813899 0.813899 0.813899 0.813899 0.813899 0.813899 0.813899 0.813899 0.813899 0.813899 0.813899 0.813899 0.813899 0.813899 0.813899 0.813899 0.813899 0.813899 0.813899 0.813899 0.813899 0.813899 0.813899 0.813899 0.813899 0.813899 0.813899 0.813899 0.813899 0.813899 0.813899 0.813899 0.813899 0.813899 0.813899 0.813899 0.813899 0.953229 0.953883 0.954089 0.953046 0.951448 0.947983 0.943835 0.943379 0.944709 0.944919 0.945537 0.946846 0.947795 0.949350 0.950305 0.951080 0.951858 0.959949 0.963656 0.963405 0.962592 0.962499 0.969328 0.968722 0.966454 0.966929 0.967105 0.967762 0.967738 0.967628 0.967160 0.966612 0.967107 0.966989 0.966441 0.965665 0.963795 0.963872 0.963536 0.963650 0.964488 0.965155 0.965761 0.965363 0.965316 0.964703 0.963304 0.962569 0.951763 0.951736 0.944435 0.944156 0.943060 0.940342 0.939222 0.937658 0.937735 0.937646 0.936581 0.936495 0.935383 0.921221 0.921415 0.920799 0.921517 0.916280 0.906122 0.901258 0.897722 0.899398 0.903440 0.907970 0.906961 0.903426 0.902237 0.888488 0.880413 0.864303 0.858229 0.847535 0.856219 0.857553 0.859083 0.856290 0.855382 0.853912 0.851699 0.840303 0.845181 0.838467 0.833286 0.830284 0.828496 0.827475 0.830025 0.833502 0.820048 0.805179 0.805996 0.790846 0.774197 0.771923 0.776289 0.786509 0.800729 0.799590 0.798235 0.784141 0.779275 0.766465 0.758287 0.760342 0.763429 0.762539 0.770488 0.771518 0.781155 0.773583 0.776927 0.779853 0.792062 0.803067 0.808111 0.808832 0.804621 0.808233 0.783856 0.784112 0.785359 0.763142 0.766926 0.766950 0.766623 0.770484 0.771651 0.768461 0.764046 0.760133 0.739127 0.750077 0.755175 0.732156 0.739640 0.720117 0.711024 0.673409 0.674271 0.675208 0.685063 0.687305 0.686773 0.676585 0.688895 0.703344 0.696930 0.702775 0.700996 0.684217 0.685184 0.693208 0.690779 0.669518 0.666918 0.665066 0.655901 0.652485 0.633125 0.644412 0.635420 0.625879 0.618893 0.582198 0.572693 0.562160 0.545247 0.522519 0.498690 0.507134 0.502225 0.484407 0.474952 0.455013 0.401307 0.415438 0.413899 0.395032 0.387182 0.372308 0.320498 0.337646 0.331792 0.332704 0.308424 0.287276 0.258597 0.207064 0.198012 0.166134 0.195656 0.214725 0.200052 0.184471 0.181611 0.190146 0.203291 0.227069 0.225355 0.251243 0.227309 0.186065 0.206812 0.198018 0.182922 0.171376 0.139251 0.175689 0.165349 0.169415 0.176166 0.130329 0.097140 0.065652 0.071219 0.085214 0.113028 0.138124 0.125074 0.104533 0.008545 0.043232 0.069410 0.069410 0.069410 0.069410 0.069410 0.069410 0.069410 0.069410 0.069410 0.069410 0.069410 0.003747 0.003747 0.003747 0.003747 0.003747 0.003747 0.003747 0.003747 0.003747 0.003747 0.003747 0.003747 0.003747 0.003747 0.003747 0.003747 0.003747 0.003747 0.003747
0.000000 0.000000 0.000000 0.000000 0.000000 0.000000 0.000000 0.000000 0.000000 0.000000 0.000000 0.000000 0.000000 0.000000 0.000000 0.000000 0.000000 0.000000 0.000000 0.000000 0.000000 0.000000 0.000000 0.000000 0.000000 0.000000 0.000000 0.000000 0.000000 0.000000 0.000000 0.000000 0.000000 0.000000 0.000000 0.000000 0.000000 0.000000 0.000000 0.000000 0.000000 0.000000 0.000000 0.000000 0.000000 0.000000 0.000000 0.000000 0.000000 0.000000 0.000000 0.000000 0.173422 0.173422 0.173422 0.173422 0.173422 0.173422 0.173422 0.191565 0.191565 0.191565 0.191565 0.191565 0.191565 0.191565 0.191565 0.191565 0.191565 0.191565 0.191565 0.191565 0.191565 0.191565 0.191565 0.191565 0.191565 0.191565 0.191565 0.191565 0.191565 0.191565 0.191565 0.191565 0.191565 0.191565 0.191565 0.191565 0.191565 0.191565 0.191565 0.191565 0.191565 0.191565 0.191565 0.191565 0.191565 0.191565 0.191565 0.191565 0.191565 0.191565 0.191565 0.219529 0.219529 0.219529 0.219529 0.219529 0.219529 0.219529 0.219529 0.219529 0.219529 0.219529 0.219529 0.219529 0.219529 0.219529 0.219529 0.219529 0.219529 0.219529 0.219529 0.219529 0.219529 0.219529 0.219529 0.219529 0.219529 0.219529 0.219529 0.219529 0.219529 0.219529 0.237356 0.237356 0.237356 0.237356 0.237356 0.237356 0.237356 0.237356 0.237356 0.237356 0.237356 0.237356 0.237356 0.237356 0.237356 0.237356 0.237356 0.237356 0.237356 0.237356 0.237356 0.237356 0.237356 0.237356 0.244339 0.244339 0.244339 0.244339 0.244339 0.244339 0.244339 0.244339 0.244339 0.244339 0.244339 0.244339 0.244339 0.244339 0.244339 0.244339 0.244339 0.244339 0.244339 0.244339 0.244339 0.248069 0.248069 0.248069 0.248069 0.248069 0.248069 0.248069 0.248069 0.248069 0.248069 0.248069 0.248069 0.248069 0.248069 0.248069 0.248069 0.248069 0.248069 0.248069 0.248069 0.248069 0.248069 0.248069 0.248069 0.248069 0.248069 0.248069 0.248069 0.248069 0.248069 0.248069 0.248069 0.248069 0.248069 0.248069 0.248069 0.248069 0.256074 0.256074 0.256074 0.256074 0.256074 0.256074 0.256074 0.256074 0.256074 0.256074 0.256074 0.256074 0.256074 0.256074 0.256074 0.256074 0.256074 0.256074 0.256074 0.256074 0.256074 0.256074 0.256074 0.256074 0.256074 0.256074 0.256074 0.256074 0.256074 0.256074 0.256074 0.256074 0.256074 0.256074 0.256074 0.256074 0.256074 0.256074 0.256074 0.256074 0.256074 0.256074 0.256074 0.256074 0.256074 0.260378 0.260378 0.260378 0.260378 0.260378 0.260378 0.260378 0.260378 0.260378 0.260378 0.260378 0.260378 0.260378 0.256074 0.256074 0.256074 0.256074 0.256074 0.256074 0.256074 0.256074 0.256074 0.256074 0.256074 0.256074 0.256074 0.260378 0.260378 0.260378 0.260378 0.260378 0.260378 0.260378 0.260378 0.260378 0.260378 0.260378 0.260378 0.251976 0.251976 0.251976 0.251976 0.251976 0.251976 0.251976 0.251976 0.251976 0.251976 0.251976 0.251976 0.256074 0.256074 0.256074 0.256074 0.256074 0.256074 0.256074 0.256074 0.256074 0.256074 0.256074 0.251976 0.251976 0.251976 0.251976 0.251976 0.251976 0.251976 0.251976 0.251976 0.251976 0.251976 0.248069 0.248069 0.248069 0.248069 0.248069 0.248069 0.248069 0.248069 0.248069 0.248069 0.248069 0.256074 0.256074 0.256074 0.256074 0.256074 0.256074 0.256074 0.256074 0.256074 0.256074 0.256074 0.256074 0.256074 0.256074 0.256074 0.256074 0.256074 0.256074 0.256074
