# Output from CTFFind version 4.1.9, run on 2019-11-03 19:29:49
# Input file: stack16_bm3d_averaged_1_3.75_0_2000_half.mrc ; Number of micrographs: 1
# Pixel size: 3.000 Angstroms ; acceleration voltage: 300.0 keV ; spherical aberration: 0.00 mm ; amplitude contrast: 0.07
# Box size: 512 pixels ; min. res.: 30.0 Angstroms ; max. res.: 5.0 Angstroms ; min. def.: 5000.0 um; max. def. 50000.0 um; num. frames averaged: 1
# 6 lines per micrograph: #1 - spatial frequency (1/Angstroms); #2 - 1D rotational average of spectrum (assuming no astigmatism); #3 - 1D rotational average of spectrum; #4 - CTF fit; #5 - cross-correlation between spectrum and CTF fit; #6 - 2sigma of expected cross correlation of noise
0.000000 0.000651 0.001302 0.001953 0.002604 0.003255 0.003906 0.004557 0.005208 0.005859 0.006510 0.007161 0.007812 0.008464 0.009115 0.009766 0.010417 0.011068 0.011719 0.012370 0.013021 0.013672 0.014323 0.014974 0.015625 0.016276 0.016927 0.017578 0.018229 0.018880 0.019531 0.020182 0.020833 0.021484 0.022135 0.022786 0.023438 0.024089 0.024740 0.025391 0.026042 0.026693 0.027344 0.027995 0.028646 0.029297 0.029948 0.030599 0.031250 0.031901 0.032552 0.033203 0.033854 0.034505 0.035156 0.035807 0.036458 0.037109 0.037760 0.038411 0.039062 0.039714 0.040365 0.041016 0.041667 0.042318 0.042969 0.043620 0.044271 0.044922 0.045573 0.046224 0.046875 0.047526 0.048177 0.048828 0.049479 0.050130 0.050781 0.051432 0.052083 0.052734 0.053385 0.054036 0.054688 0.055339 0.055990 0.056641 0.057292 0.057943 0.058594 0.059245 0.059896 0.060547 0.061198 0.061849 0.062500 0.063151 0.063802 0.064453 0.065104 0.065755 0.066406 0.067057 0.067708 0.068359 0.069010 0.069661 0.070312 0.070964 0.071615 0.072266 0.072917 0.073568 0.074219 0.074870 0.075521 0.076172 0.076823 0.077474 0.078125 0.078776 0.079427 0.080078 0.080729 0.081380 0.082031 0.082682 0.083333 0.083984 0.084635 0.085286 0.085938 0.086589 0.087240 0.087891 0.088542 0.089193 0.089844 0.090495 0.091146 0.091797 0.092448 0.093099 0.093750 0.094401 0.095052 0.095703 0.096354 0.097005 0.097656 0.098307 0.098958 0.099609 0.100260 0.100911 0.101562 0.102214 0.102865 0.103516 0.104167 0.104818 0.105469 0.106120 0.106771 0.107422 0.108073 0.108724 0.109375 0.110026 0.110677 0.111328 0.111979 0.112630 0.113281 0.113932 0.114583 0.115234 0.115885 0.116536 0.117188 0.117839 0.118490 0.119141 0.119792 0.120443 0.121094 0.121745 0.122396 0.123047 0.123698 0.124349 0.125000 0.125651 0.126302 0.126953 0.127604 0.128255 0.128906 0.129557 0.130208 0.130859 0.131510 0.132161 0.132812 0.133464 0.134115 0.134766 0.135417 0.136068 0.136719 0.137370 0.138021 0.138672 0.139323 0.139974 0.140625 0.141276 0.141927 0.142578 0.143229 0.143880 0.144531 0.145182 0.145833 0.146484 0.147135 0.147786 0.148438 0.149089 0.149740 0.150391 0.151042 0.151693 0.152344 0.152995 0.153646 0.154297 0.154948 0.155599 0.156250 0.156901 0.157552 0.158203 0.158854 0.159505 0.160156 0.160807 0.161458 0.162109 0.162760 0.163411 0.164062 0.164714 0.165365 0.166016 0.166667 0.167318 0.167969 0.168620 0.169271 0.169922 0.170573 0.171224 0.171875 0.172526 0.173177 0.173828 0.174479 0.175130 0.175781 0.176432 0.177083 0.177734 0.178385 0.179036 0.179688 0.180339 0.180990 0.181641 0.182292 0.182943 0.183594 0.184245 0.184896 0.185547 0.186198 0.186849 0.187500 0.188151 0.188802 0.189453 0.190104 0.190755 0.191406 0.192057 0.192708 0.193359 0.194010 0.194661 0.195312 0.195964 0.196615 0.197266 0.197917 0.198568 0.199219 0.199870 0.200521 0.201172 0.201823 0.202474 0.203125 0.203776 0.204427 0.205078 0.205729 0.206380 0.207031 0.207682 0.208333 0.208984 0.209635 0.210286 0.210938 0.211589 0.212240 0.212891 0.213542 0.214193 0.214844 0.215495 0.216146 0.216797 0.217448 0.218099 0.218750 0.219401 0.220052 0.220703 0.221354 0.222005 0.222656 0.223307 0.223958 0.224609 0.225260 0.225911 0.226562 0.227214 0.227865 0.228516 0.229167 0.229818 0.230469 0.231120 0.231771 0.232422 0.233073 0.233724 0.234375 0.235026 0.235677
       0.33629        0.33629        0.33629        0.33629        0.33629        0.33629        0.33629        0.33629        0.33629        0.33629        0.33629        0.33629        0.33629        0.33629        0.33629        0.33629        0.33629        0.33628        0.33629        0.33629        0.33629        0.33629        0.33629        0.33629        0.33629        0.33629        0.33629        0.33629        0.33629        0.33629        0.33629        0.33629        0.33628        0.33629        0.33629        0.33629        0.33629        0.33629        0.33629        0.33628        0.33629        0.33628        0.33629        0.33629        0.33629        0.33629        0.33629        0.33629        0.33629        0.33629        0.33628        0.43107        0.58884        0.37725       -0.16404       -0.44587       -0.56193       -0.65539       -0.73123       -0.75444       -0.87484       -0.92078       -0.72493       -0.89615       -0.85700       -1.00736       -1.05004       -0.93816       -0.89426       -0.82682       -0.76890       -0.68038       -0.59505       -0.50317       -0.42397       -0.20919       -0.09441       -0.00530        0.22472        0.23877        0.30595        0.37240        0.39952        0.49672        0.55467        0.58664        0.55510        0.48877        0.52844        0.49717        0.41700        0.32088        0.18338        0.17303        0.11094       -0.04595       -0.06189       -0.05708        0.02520       -0.01192        0.03957        0.02944        0.14514        0.19130        0.40684        0.46823        0.56618        0.67101        0.72809        0.72931        0.66339        0.64172        0.54188        0.45385        0.38158        0.26766        0.20394        0.18662        0.07623        0.04521        0.02444        0.05396        0.08460        0.28967        0.41238        0.50894        0.55947        0.59913        0.65184        0.61829        0.62593        0.61112        0.57584        0.47611        0.28263        0.25223        0.20852        0.11620        0.06009        0.10697        0.12533        0.26404        0.35579        0.41128        0.48540        0.54960        0.62473        0.57423        0.52393        0.50136        0.36608        0.21818        0.21580        0.15684        0.12726        0.16973        0.22342        0.26573        0.32307        0.42395        0.43244        0.52312        0.47046        0.46281        0.47095        0.38000        0.32218        0.27178        0.21653        0.20484        0.22216        0.23163        0.31559        0.42791        0.43113        0.48613        0.54164        0.47325        0.43309        0.36395        0.29379        0.24382        0.23323        0.26267        0.27684        0.29508        0.32581        0.41492        0.47094        0.45798        0.45411        0.35364        0.36331        0.35438        0.21550        0.23240        0.25229        0.28642        0.34820        0.37110        0.40536        0.44268        0.44158        0.37330        0.35693        0.30842        0.32502        0.28329        0.27007        0.27626        0.32418        0.37670        0.38617        0.40282        0.37752        0.40165        0.36240        0.28830        0.28153        0.29472        0.32479        0.36099        0.34445        0.41815        0.34987        0.37728        0.37529        0.32233        0.33115        0.28284        0.29520        0.34080        0.32551        0.32889        0.33526        0.35333        0.31863        0.34455        0.29682        0.31355        0.27345        0.28648        0.29358        0.34642        0.38215        0.35713        0.34300        0.29744        0.27102        0.27193        0.30334        0.27309        0.30757        0.36342        0.37868        0.33622        0.30806        0.29953        0.29724        0.28865        0.28246        0.28568        0.32884        0.33772        0.30851        0.28111        0.33766        0.30627        0.29387        0.32722        0.32525        0.32598        0.34083        0.30622        0.32319        0.27385        0.29923        0.30102        0.31930        0.40165        0.32666        0.34908        0.30529        0.30071        0.30285        0.32426        0.28940        0.28181        0.30700        0.31369        0.33995        0.31010        0.31217        0.29439        0.29673        0.30377        0.33251        0.32018        0.33764        0.34317        0.30910        0.28022        0.28970        0.25402        0.32402        0.32800        0.31696        0.29812        0.27301        0.29590        0.32192        0.32165        0.29340        0.29098        0.30779        0.30007        0.24063        0.30733        0.29469        0.29234        0.30866        0.29807        0.34579        0.37385        0.28841        0.24977        0.24332        0.26698        0.27713        0.26976        0.27889        0.26220        0.25643        0.28729        0.29617        0.27871        0.24221        0.34099        0.30713        0.27696        0.25194        0.22978        0.26336        0.23007        0.25776        0.31401        0.34489        0.28117        0.25711        0.27062        0.25859        0.20575        0.30838        0.23770        0.18686        0.14762        0.21639        0.27371        0.22927       -0.00479        0.16089       -0.41046       -0.73862
2.944401 2.908017 2.871866 2.835949 2.800264 2.764813 2.729595 2.694610 2.659858 2.625339 2.591054 2.557001 2.523182 2.489596 2.456243 2.423123 2.390236 2.357582 2.325162 2.292974 2.261020 2.229299 2.197811 2.166556 2.135534 2.104745 2.074190 2.043867 2.013778 1.983922 1.954299 1.924909 1.895752 1.866829 1.838138 1.809681 1.781457 1.753466 1.725708 1.698183 1.670891 1.643833 1.617007 1.590415 1.564056 1.537930 1.512037 1.486377 1.460950 1.435757 1.410796 1.446513 1.565732 1.509256 0.864147 0.579991 0.424350 0.360170 0.272351 0.188429 0.129844 -0.068248 0.168211 0.028734 -0.060892 -0.129337 -0.251718 -0.174574 -0.093399 -0.096217 -0.103384 0.021217 0.017255 0.196392 0.099851 0.330347 0.443254 0.455265 0.724469 0.682198 0.672829 0.826003 0.794675 0.813115 0.920152 0.873540 0.909925 0.734766 0.822818 0.841603 0.654033 0.592694 0.448380 0.416597 0.383648 0.176156 0.160492 0.116995 0.217672 0.125887 0.215644 0.105092 0.257686 0.245067 0.478617 0.427511 0.612233 0.641088 0.708010 0.739416 0.664139 0.647195 0.495098 0.446565 0.327296 0.302377 0.126753 0.188615 0.002005 0.016558 -0.041134 -0.038053 -0.008078 0.053458 0.302131 0.335955 0.412746 0.363650 0.460287 0.488959 0.481331 0.465148 0.392994 0.394530 0.153143 0.117388 0.071545 0.017669 -0.140419 -0.026693 -0.090256 0.039670 0.141542 0.184993 0.277526 0.269077 0.366981 0.474743 0.358026 0.408180 0.306061 0.148638 0.056913 0.077015 0.023173 0.031486 0.070776 0.114179 0.134370 0.245743 0.261221 0.299649 0.360834 0.255980 0.278442 0.243566 0.125990 0.105754 0.036746 0.034279 0.016959 0.022412 0.051668 0.175265 0.206531 0.203978 0.319700 0.219356 0.248271 0.114665 0.097486 -0.013636 -0.005716 -0.002519 0.025128 0.033620 0.026478 0.094720 0.169630 0.177577 0.217207 0.118278 0.079829 0.102573 0.029908 -0.089492 -0.006250 0.016562 0.033035 0.051719 0.108888 0.159782 0.141113 0.161093 0.058565 0.066519 0.034580 0.049600 0.003856 -0.003220 0.015464 0.057159 0.093075 0.122646 0.093545 0.104445 0.114738 0.040555 -0.005519 0.005503 0.009582 0.068481 0.057857 0.084359 0.117555 0.063156 0.090708 0.060487 0.037641 0.040551 -0.022976 0.025755 0.062802 0.030306 0.035896 0.094328 0.030914 0.053831 0.028224 0.013778 0.024400 -0.033843 -0.003517 0.011362 0.060594 0.098303 0.063190 0.039453 -0.010638 -0.024961 -0.011609 0.007884 -0.012579 0.022884 0.075903 0.071112 0.008916 0.027640 -0.014656 0.006132 -0.010514 -0.022193 -0.002752 0.041834 -0.003041 0.003084 -0.006716 0.024391 -0.011475 0.001963 0.018788 0.021804 0.040080 -0.015602 0.007986 0.001013 -0.052525 -0.002156 -0.008764 0.033793 0.095267 0.001709 0.029985 0.003898 0.004659 -0.022634 0.036571 -0.019105 -0.017212 -0.001419 0.042631 0.026786 0.013116 0.040722 -0.035353 0.002599 -0.000023 0.030211 0.041395 0.044599 0.023855 0.031937 0.003027 -0.021450 -0.017951 0.022117 0.041956 0.023645 0.012544 -0.018645 0.000585 0.031406 0.028031 0.018692 0.002640 -0.001152 0.000636 -0.058424 0.008131 0.010918 0.001993 0.012242 0.019898 0.065847 0.077264 0.014643 -0.017224 -0.044957 -0.008743 0.014731 -0.047293 0.012533 -0.025566 -0.053193 0.017302 0.011862 -0.071855 -0.075468 0.030988 -0.021240 -0.058810 -0.068403 -0.061325 -0.019475 -0.069486 -0.025601 0.029615 0.081354 -0.003898 -0.003364 0.130296 0.038098 -0.039626 0.169075 0.114687 0.131807 0.078498 0.200353 0.253815 0.211275 -0.155277 0.152729 -0.677264
0.072396 0.073047 0.075001 0.078256 0.082811 0.088666 0.095818 0.104263 0.113998 0.125019 0.137317 0.150885 0.165713 0.181788 0.199094 0.217613 0.237323 0.258197 0.280205 0.303312 0.327475 0.352649 0.378778 0.405803 0.433655 0.462257 0.491523 0.521359 0.551661 0.582313 0.613191 0.644158 0.675068 0.705761 0.736068 0.765807 0.794784 0.822798 0.849631 0.875061 0.898852 0.920762 0.940542 0.957936 0.972684 0.984524 0.993193 0.998431 0.999982 0.997597 0.991038 0.980081 0.964520 0.944169 0.918867 0.888484 0.852921 0.812119 0.766059 0.714770 0.658329 0.596869 0.530579 0.459709 0.384573 0.305552 0.223092 0.137707 0.049980 0.039440 0.129840 0.220444 0.310423 0.398896 0.484939 0.567593 0.645877 0.718796 0.785357 0.844581 0.895519 0.937271 0.968999 0.989946 0.999460 0.997001 0.982171 0.954722 0.914578 0.861844 0.796824 0.720026 0.632173 0.534202 0.427266 0.312727 0.192151 0.067288 0.059946 0.187492 0.313181 0.434766 0.549965 0.656503 0.752157 0.834812 0.902508 0.953496 0.986289 0.999710 0.992941 0.965566 0.917603 0.849533 0.762316 0.657401 0.536714 0.402646 0.258016 0.106025 0.049804 0.205701 0.357735 0.501912 0.634283 0.751056 0.848711 0.924123 0.974668 0.998332 0.993808 0.960568 0.898929 0.810082 0.696107 0.559949 0.405367 0.236859 0.059541 0.120987 0.298815 0.467908 0.622318 0.756396 0.865012 0.943776 0.989226 0.999015 0.972047 0.908583 0.810295 0.680265 0.522932 0.343973 0.150126 0.051036 0.251392 0.442590 0.616395 0.765060 0.881683 0.960560 0.997488 0.990033 0.937711 0.842102 0.706861 0.537633 0.341861 0.128502 0.092352 0.309940 0.513351 0.692065 0.836525 0.938680 0.992465 0.994212 0.942943 0.840533 0.691719 0.503946 0.287052 0.052806 0.185709 0.414801 0.620954 0.791648 0.916143 0.986205 0.996708 0.946065 0.836462 0.673858 0.467743 0.230652 0.022546 0.275536 0.511606 0.714749 0.870778 0.968368 0.999940 0.962323 0.857134 0.690828 0.474398 0.222739 0.046326 0.313250 0.558179 0.762437 0.909990 0.988765 0.991722 0.917574 0.771072 0.562830 0.308658 0.028451 0.255323 0.519376 0.741543 0.902664 0.988316 0.990196 0.907031 0.744914 0.516981 0.242494 0.054731 0.348301 0.611584 0.820150 0.954085 0.999998 0.952473 0.814818 0.599020 0.324828 0.018077 0.291676 0.573968 0.800430 0.947712 0.999985 0.950779 0.803912 0.573398 0.282254 0.039656 0.358616 0.640544 0.854680 0.977013 0.993104 0.899943 0.706605 0.433552 0.110641 0.226033 0.538095 0.789292 0.949752 0.999669 0.931915 0.753227 0.483758 0.155001 0.193759 0.520060 0.783423 0.950454 0.999210 0.922266 0.728032 0.440076 0.094477 0.264571 0.590305 0.839533 0.978429 0.987304 0.863604 0.622682 0.296144 0.072106 0.431627 0.732325 0.931484 0.999984 0.926773 0.720881 0.410599 0.039834 0.337943 0.667324 0.899137 0.997920 0.947559 0.754182 0.445736 0.068229 0.320955 0.661686 0.900405 0.998692 0.939686 0.731258 0.405299 0.013146 0.382335 0.716725 0.934614 0.998953 0.897622 0.646008 0.285035 0.125239 0.515403 0.818444 0.981323 0.974513 0.797654 0.480264 0.077128 0.340879 0.699154 0.932718 0.998197 0.882175 0.604295 0.214314 0.216480 0.608134 0.886868 0.999111 0.922125 0.668967 0.286706 0.151959 0.562328 0.863992 0.996770 0.932991 0.683661 0.297045 0.150309 0.568490 0.872236 0.998507 0.919865 0.650870 0.245871 0.211587 0.625777 0.908784 0.999384 0.876652 0.565223 0.130876 0.333020 0.725371
1.000000 1.000000 1.000000 1.000000 1.000000 1.000000 1.000000 1.000000 1.000000 1.000000 1.000000 1.000000 1.000000 1.000000 1.000000 1.000000 1.000000 1.000000 1.000000 1.000000 1.000000 1.000000 1.000000 1.000000 1.000000 1.000000 1.000000 1.000000 1.000000 1.000000 1.000000 1.000000 1.000000 1.000000 1.000000 1.000000 1.000000 1.000000 1.000000 1.000000 1.000000 1.000000 1.000000 1.000000 1.000000 1.000000 1.000000 1.000000 1.000000 1.000000 1.000000 1.000000 0.932791 0.932791 0.932791 0.932791 0.932791 0.932791 0.932791 0.932791 0.932791 0.932791 0.932791 0.932791 0.932791 0.932791 0.932791 0.932791 0.932791 0.932791 0.932791 0.932791 0.932791 0.932791 0.932791 0.932791 0.932791 0.932791 0.932791 0.932791 0.932791 0.932791 0.932791 0.932791 0.932791 0.920177 0.918222 0.921135 0.922140 0.922040 0.921557 0.921268 0.921564 0.923049 0.924896 0.946279 0.948592 0.949649 0.950717 0.949506 0.952011 0.949812 0.954221 0.969251 0.968576 0.969451 0.963766 0.964613 0.964229 0.963651 0.965539 0.965257 0.963975 0.962460 0.961304 0.960285 0.959948 0.961500 0.961954 0.962227 0.962598 0.962561 0.962460 0.960024 0.957821 0.958011 0.957356 0.956214 0.961648 0.960200 0.963248 0.964409 0.965097 0.965895 0.966116 0.966295 0.959577 0.957751 0.955420 0.941473 0.935146 0.930383 0.933439 0.936797 0.934727 0.929488 0.927166 0.929415 0.920936 0.920508 0.915944 0.916672 0.904973 0.899784 0.889742 0.891164 0.892880 0.892596 0.889896 0.878042 0.869675 0.868378 0.871569 0.865522 0.862261 0.878550 0.874225 0.876298 0.879672 0.882230 0.889212 0.874480 0.867809 0.863925 0.859334 0.858985 0.861071 0.865539 0.867894 0.864269 0.856193 0.859801 0.854386 0.861277 0.866708 0.863788 0.860068 0.858246 0.857823 0.858658 0.854126 0.859850 0.851595 0.849007 0.847470 0.841409 0.841262 0.837343 0.837147 0.838144 0.841048 0.833863 0.840014 0.825148 0.831163 0.826254 0.831175 0.827376 0.831186 0.831848 0.816585 0.812295 0.809646 0.816585 0.822421 0.792665 0.790581 0.785582 0.777673 0.782301 0.788537 0.783318 0.787078 0.781880 0.789038 0.787864 0.789264 0.784971 0.766743 0.770778 0.778708 0.784937 0.767685 0.756178 0.750363 0.748697 0.744313 0.703824 0.690185 0.677360 0.661291 0.665628 0.658686 0.645729 0.651101 0.652699 0.625596 0.627163 0.622875 0.583467 0.573293 0.562276 0.564999 0.556645 0.569713 0.568244 0.544382 0.559594 0.562628 0.565150 0.578040 0.455865 0.461902 0.441852 0.464956 0.476756 0.479542 0.462892 0.472045 0.464539 0.468287 0.468125 0.467057 0.483551 0.457847 0.452139 0.465880 0.442619 0.429738 0.443007 0.452725 0.457561 0.438458 0.438598 0.440783 0.438048 0.401932 0.403053 0.429703 0.429144 0.380607 0.385605 0.396315 0.378027 0.412631 0.411766 0.424745 0.438735 0.396783 0.401117 0.386853 0.409376 0.436876 0.411951 0.398796 0.394764 0.409011 0.366621 0.381607 0.407558 0.382138 0.452400 0.407020 0.392709 0.316573 0.353321 0.312792 0.321965 0.316774 0.255138 0.247365 0.219160 0.223272 0.196700 0.208563 0.183782 0.159497 0.129228 0.136030 0.105392 0.129746 0.138541 0.119818 0.111388 0.111388 0.111388 0.111388 0.100253 0.100253 0.100253 0.100253 0.100253 0.100253 0.100253 0.100253 0.100253 0.100253 0.100253 0.100253 0.100253 0.100253 0.028601 0.028601 0.028601 0.028601 0.028601 0.028601 0.028601 0.028601 0.028601 0.028601 0.028601 0.028601
0.000000 0.000000 0.000000 0.000000 0.000000 0.000000 0.000000 0.000000 0.000000 0.000000 0.000000 0.000000 0.000000 0.000000 0.000000 0.000000 0.000000 0.000000 0.000000 0.000000 0.000000 0.000000 0.000000 0.000000 0.000000 7.000000 4.000000 0.000000 0.000000 0.000000 0.000000 0.000000 0.000000 0.000000 0.000000 0.000000 0.000000 0.000000 0.000000 0.000000 0.000000 0.000000 0.000000 0.000000 0.000000 0.000000 0.000000 0.000000 0.000000 0.000000 0.000000 0.000000 0.209657 0.209657 0.209657 0.209657 0.209657 0.209657 0.209657 0.209657 0.209657 0.209657 0.209657 0.209657 0.209657 0.209657 0.209657 0.209657 0.209657 0.209657 0.209657 0.209657 0.209657 0.209657 0.209657 0.209657 0.209657 0.209657 0.209657 0.209657 0.209657 0.209657 0.209657 0.209657 0.209657 0.244339 0.244339 0.244339 0.244339 0.244339 0.244339 0.244339 0.244339 0.244339 0.244339 0.244339 0.244339 0.244339 0.244339 0.244339 0.244339 0.244339 0.244339 0.244339 0.244339 0.244339 0.244339 0.244339 0.244339 0.244339 0.260378 0.260378 0.260378 0.260378 0.260378 0.260378 0.260378 0.260378 0.260378 0.260378 0.260378 0.260378 0.260378 0.260378 0.260378 0.260378 0.260378 0.260378 0.260378 0.260378 0.269680 0.269680 0.269680 0.269680 0.269680 0.269680 0.269680 0.269680 0.269680 0.269680 0.269680 0.269680 0.269680 0.269680 0.269680 0.269680 0.269680 0.269680 0.269680 0.269680 0.269680 0.269680 0.269680 0.269680 0.269680 0.269680 0.269680 0.269680 0.269680 0.269680 0.269680 0.269680 0.269680 0.280056 0.280056 0.280056 0.280056 0.280056 0.280056 0.280056 0.280056 0.280056 0.280056 0.280056 0.280056 0.280056 0.280056 0.280056 0.280056 0.280056 0.280056 0.280056 0.280056 0.280056 0.280056 0.280056 0.280056 0.280056 0.280056 0.280056 0.285714 0.285714 0.285714 0.285714 0.285714 0.285714 0.285714 0.285714 0.285714 0.285714 0.285714 0.285714 0.274721 0.274721 0.274721 0.274721 0.274721 0.274721 0.274721 0.274721 0.274721 0.274721 0.274721 0.274721 0.280056 0.280056 0.280056 0.280056 0.280056 0.280056 0.280056 0.280056 0.280056 0.280056 0.280056 0.285714 0.285714 0.285714 0.285714 0.285714 0.285714 0.285714 0.285714 0.285714 0.285714 0.269680 0.269680 0.269680 0.269680 0.269680 0.269680 0.269680 0.269680 0.269680 0.269680 0.269680 0.285714 0.285714 0.285714 0.285714 0.285714 0.285714 0.285714 0.285714 0.285714 0.280056 0.280056 0.280056 0.280056 0.280056 0.280056 0.280056 0.280056 0.280056 0.274721 0.274721 0.274721 0.274721 0.274721 0.274721 0.274721 0.274721 0.274721 0.269680 0.269680 0.269680 0.269680 0.269680 0.269680 0.269680 0.269680 0.269680 0.280056 0.280056 0.280056 0.280056 0.280056 0.280056 0.280056 0.280056 0.260378 0.260378 0.260378 0.260378 0.260378 0.260378 0.260378 0.260378 0.260378 0.269680 0.269680 0.269680 0.269680 0.269680 0.269680 0.269680 0.269680 0.285714 0.285714 0.285714 0.285714 0.285714 0.285714 0.285714 0.264906 0.264906 0.264906 0.264906 0.264906 0.264906 0.264906 0.264906 0.274721 0.274721 0.274721 0.274721 0.274721 0.274721 0.274721 0.256074 0.256074 0.256074 0.256074 0.256074 0.256074 0.256074 0.256074 0.264906 0.264906 0.264906 0.264906 0.264906 0.264906 0.264906 0.264906 0.264906 0.264906 0.264906 0.264906 0.264906 0.264906 0.280056 0.280056 0.280056 0.280056 0.280056 0.280056 0.280056 0.280056 0.280056 0.280056 0.280056 0.280056
