# Output from CTFFind version 4.1.9, run on 2019-11-03 19:40:05
# Input file: stack6_bm3d_averaged_1_4.75_0_1000_half.mrc ; Number of micrographs: 1
# Pixel size: 3.000 Angstroms ; acceleration voltage: 300.0 keV ; spherical aberration: 0.00 mm ; amplitude contrast: 0.07
# Box size: 512 pixels ; min. res.: 30.0 Angstroms ; max. res.: 5.0 Angstroms ; min. def.: 5000.0 um; max. def. 50000.0 um; num. frames averaged: 1
# 6 lines per micrograph: #1 - spatial frequency (1/Angstroms); #2 - 1D rotational average of spectrum (assuming no astigmatism); #3 - 1D rotational average of spectrum; #4 - CTF fit; #5 - cross-correlation between spectrum and CTF fit; #6 - 2sigma of expected cross correlation of noise
0.000000 0.000651 0.001302 0.001953 0.002604 0.003255 0.003906 0.004557 0.005208 0.005859 0.006510 0.007161 0.007812 0.008464 0.009115 0.009766 0.010417 0.011068 0.011719 0.012370 0.013021 0.013672 0.014323 0.014974 0.015625 0.016276 0.016927 0.017578 0.018229 0.018880 0.019531 0.020182 0.020833 0.021484 0.022135 0.022786 0.023438 0.024089 0.024740 0.025391 0.026042 0.026693 0.027344 0.027995 0.028646 0.029297 0.029948 0.030599 0.031250 0.031901 0.032552 0.033203 0.033854 0.034505 0.035156 0.035807 0.036458 0.037109 0.037760 0.038411 0.039062 0.039714 0.040365 0.041016 0.041667 0.042318 0.042969 0.043620 0.044271 0.044922 0.045573 0.046224 0.046875 0.047526 0.048177 0.048828 0.049479 0.050130 0.050781 0.051432 0.052083 0.052734 0.053385 0.054036 0.054688 0.055339 0.055990 0.056641 0.057292 0.057943 0.058594 0.059245 0.059896 0.060547 0.061198 0.061849 0.062500 0.063151 0.063802 0.064453 0.065104 0.065755 0.066406 0.067057 0.067708 0.068359 0.069010 0.069661 0.070312 0.070964 0.071615 0.072266 0.072917 0.073568 0.074219 0.074870 0.075521 0.076172 0.076823 0.077474 0.078125 0.078776 0.079427 0.080078 0.080729 0.081380 0.082031 0.082682 0.083333 0.083984 0.084635 0.085286 0.085938 0.086589 0.087240 0.087891 0.088542 0.089193 0.089844 0.090495 0.091146 0.091797 0.092448 0.093099 0.093750 0.094401 0.095052 0.095703 0.096354 0.097005 0.097656 0.098307 0.098958 0.099609 0.100260 0.100911 0.101562 0.102214 0.102865 0.103516 0.104167 0.104818 0.105469 0.106120 0.106771 0.107422 0.108073 0.108724 0.109375 0.110026 0.110677 0.111328 0.111979 0.112630 0.113281 0.113932 0.114583 0.115234 0.115885 0.116536 0.117188 0.117839 0.118490 0.119141 0.119792 0.120443 0.121094 0.121745 0.122396 0.123047 0.123698 0.124349 0.125000 0.125651 0.126302 0.126953 0.127604 0.128255 0.128906 0.129557 0.130208 0.130859 0.131510 0.132161 0.132812 0.133464 0.134115 0.134766 0.135417 0.136068 0.136719 0.137370 0.138021 0.138672 0.139323 0.139974 0.140625 0.141276 0.141927 0.142578 0.143229 0.143880 0.144531 0.145182 0.145833 0.146484 0.147135 0.147786 0.148438 0.149089 0.149740 0.150391 0.151042 0.151693 0.152344 0.152995 0.153646 0.154297 0.154948 0.155599 0.156250 0.156901 0.157552 0.158203 0.158854 0.159505 0.160156 0.160807 0.161458 0.162109 0.162760 0.163411 0.164062 0.164714 0.165365 0.166016 0.166667 0.167318 0.167969 0.168620 0.169271 0.169922 0.170573 0.171224 0.171875 0.172526 0.173177 0.173828 0.174479 0.175130 0.175781 0.176432 0.177083 0.177734 0.178385 0.179036 0.179688 0.180339 0.180990 0.181641 0.182292 0.182943 0.183594 0.184245 0.184896 0.185547 0.186198 0.186849 0.187500 0.188151 0.188802 0.189453 0.190104 0.190755 0.191406 0.192057 0.192708 0.193359 0.194010 0.194661 0.195312 0.195964 0.196615 0.197266 0.197917 0.198568 0.199219 0.199870 0.200521 0.201172 0.201823 0.202474 0.203125 0.203776 0.204427 0.205078 0.205729 0.206380 0.207031 0.207682 0.208333 0.208984 0.209635 0.210286 0.210938 0.211589 0.212240 0.212891 0.213542 0.214193 0.214844 0.215495 0.216146 0.216797 0.217448 0.218099 0.218750 0.219401 0.220052 0.220703 0.221354 0.222005 0.222656 0.223307 0.223958 0.224609 0.225260 0.225911 0.226562 0.227214 0.227865 0.228516 0.229167 0.229818 0.230469 0.231120 0.231771 0.232422 0.233073 0.233724 0.234375 0.235026 0.235677
       0.30222        0.30222        0.30222        0.30222        0.30222        0.30222        0.30222        0.30222        0.30222        0.30222        0.30222        0.30222        0.30222        0.30222        0.30222        0.30222        0.30222        0.30222        0.30222        0.30222        0.30222        0.30222        0.30222        0.30222        0.30222        0.30222        0.30222        0.30222        0.30222        0.30222        0.30222        0.30222        0.30222        0.30222        0.30222        0.30222        0.30222        0.30222        0.30222        0.30222        0.30222        0.30222        0.30222        0.30222        0.30222        0.30222        0.30222        0.30222        0.30222        0.30222        0.30222        0.60085        0.73307        0.35462        0.19141        0.12485       -0.15424        0.10629        0.02176        0.02906        0.08691        0.30886        0.33846        0.26704        0.15660       -0.03935       -0.00963        0.03909       -0.14890       -0.15914       -0.09228       -0.11600       -0.24759       -0.15896       -0.28460       -0.29289       -0.29578       -0.36265       -0.44065       -0.39092       -0.30067       -0.26937       -0.36692       -0.27517       -0.33736       -0.27289       -0.19725       -0.14811       -0.10960       -0.03198       -0.00375        0.10648        0.14917        0.21025        0.32992        0.39301        0.35561        0.46119        0.55420        0.56357        0.64624        0.59405        0.63188        0.59837        0.61968        0.62088        0.55589        0.56750        0.55927        0.39413        0.32557        0.35518        0.34277        0.18478        0.14087        0.10647        0.07139        0.07750       -0.01876        0.04039        0.01082       -0.03431        0.08250        0.15649        0.25372        0.34461        0.33352        0.36363        0.46790        0.50037        0.43090        0.64831        0.52744        0.48159        0.56218        0.50017        0.51921        0.47638        0.36179        0.31018        0.25192        0.20731        0.18754        0.17581        0.15172        0.09719        0.16362        0.16216        0.20660        0.18479        0.25488        0.28902        0.32220        0.44556        0.42206        0.41108        0.44744        0.48771        0.46877        0.44885        0.38019        0.40032        0.34089        0.27816        0.22499        0.23623        0.21911        0.17293        0.14883        0.19466        0.19201        0.24519        0.31716        0.34185        0.40175        0.38584        0.44703        0.45624        0.44694        0.42263        0.39040        0.40313        0.37507        0.33660        0.31599        0.29813        0.24740        0.26321        0.25947        0.21074        0.26683        0.25180        0.26126        0.31241        0.35879        0.39561        0.39225        0.40679        0.38390        0.40201        0.38849        0.29110        0.27969        0.24018        0.25516        0.21384        0.18996        0.27057        0.31523        0.29645        0.26779        0.32551        0.25908        0.33565        0.35518        0.35648        0.36053        0.37932        0.31285        0.31894        0.30300        0.27246        0.26915        0.24318        0.27206        0.29396        0.29348        0.31378        0.35810        0.37133        0.35421        0.33274        0.34896        0.31912        0.30596        0.30106        0.27184        0.27833        0.25288        0.29712        0.31241        0.29733        0.28945        0.31178        0.31759        0.32684        0.32985        0.28958        0.25817        0.28369        0.27518        0.26177        0.24393        0.22477        0.24211        0.25381        0.24161        0.26565        0.27662        0.32046        0.30613        0.28051        0.29764        0.24164        0.20848        0.26432        0.23959        0.20759        0.26247        0.30458        0.27229        0.29491        0.29424        0.29114        0.29850        0.30010        0.26600        0.29757        0.28126        0.31833        0.26207        0.26326        0.24950        0.29421        0.29841        0.31417        0.32226        0.30546        0.20690        0.26981        0.26242        0.22932        0.24348        0.24356        0.28572        0.26267        0.30346        0.29817        0.34738        0.29970        0.27197        0.23240        0.23126        0.24426        0.24394        0.27055        0.28473        0.30101        0.31818        0.28060        0.27894        0.25382        0.26595        0.27444        0.23534        0.21053        0.23343        0.31389        0.29577        0.28845        0.28195        0.22271        0.26115        0.24871        0.20522        0.21835        0.26682        0.27956        0.27786        0.21258        0.19417        0.25083        0.24508        0.25870        0.25036        0.24577        0.18852        0.21637        0.25364        0.22868        0.27344        0.23672        0.23148        0.16914        0.27533        0.30057        0.17398        0.16803        0.11983        0.13683        0.27767        0.15218        0.12341        0.31961        0.20577        0.13575        0.10019        0.15983        0.12526        0.15898       -0.08099       -0.69742       -1.04761
3.084082 3.052610 3.021303 2.990161 2.959184 2.928372 2.897725 2.867243 2.836927 2.806775 2.776788 2.746967 2.717310 2.687819 2.658492 2.629331 2.600334 2.571503 2.542837 2.514335 2.485999 2.457828 2.429822 2.401981 2.374305 2.346794 2.319448 2.292267 2.265251 2.238400 2.211714 2.185193 2.158838 2.132647 2.106621 2.080761 2.055065 2.029535 2.004169 1.978969 1.953933 1.929063 1.904358 1.879817 1.855442 1.831232 1.807187 1.783307 1.759592 1.736042 1.712657 2.052006 2.364912 1.732321 1.626338 1.355049 0.813183 1.217541 1.085059 1.101485 0.962914 1.570615 1.451410 1.450711 1.206076 0.879233 0.725299 0.963118 0.746227 0.425071 0.518905 0.649061 0.392967 0.429469 0.274417 0.187762 0.138487 0.134406 -0.131563 -0.045279 0.091770 0.053665 0.005707 0.093982 -0.047428 -0.019838 0.143791 0.214758 0.269605 0.326120 0.373419 0.618514 0.563966 0.641597 0.857336 0.970081 0.833497 1.153168 1.140114 1.225959 1.286473 1.158483 1.318819 1.174828 1.129137 1.297952 1.083868 1.042720 1.126052 0.895683 0.611216 0.656667 0.712549 0.424664 0.333965 0.264603 0.134342 0.134034 -0.011727 0.096069 0.047533 -0.089159 0.042399 0.159734 0.263167 0.493633 0.490454 0.449211 0.625025 0.763147 0.499488 0.906227 0.751664 0.706885 0.774701 0.615634 0.690324 0.691049 0.419098 0.329310 0.233680 0.163117 0.108818 0.013990 0.044202 -0.126665 0.000468 -0.023492 0.077536 -0.035421 0.161210 0.168810 0.136470 0.359816 0.442883 0.347478 0.289287 0.498753 0.495232 0.381235 0.339292 0.311306 0.241642 0.174115 0.014346 0.034296 -0.032698 0.013971 -0.156570 -0.075300 -0.115328 0.075115 0.000183 0.198092 0.205674 0.237724 0.313835 0.313848 0.366651 0.328438 0.368313 0.364975 0.227764 0.267142 0.140161 0.197635 0.055512 0.111733 0.047538 0.051810 -0.027858 0.094913 0.004765 0.108363 0.202973 0.215300 0.288892 0.277335 0.286332 0.273448 0.281429 0.176188 0.085275 0.072689 0.013853 0.012291 -0.068128 -0.041660 0.079003 0.157595 0.066853 0.088370 0.084868 0.093738 0.187447 0.166913 0.199845 0.246673 0.147758 0.107581 0.105955 0.084533 0.059931 -0.031645 0.014648 0.132858 0.006197 0.121364 0.115134 0.222576 0.217378 0.202276 0.184846 0.202682 0.104611 0.128272 0.128372 0.061693 0.025809 0.080945 0.106179 0.128512 0.111183 0.098037 0.119338 0.152517 0.138992 0.119812 0.035158 -0.005377 0.068664 0.008615 0.035446 -0.042550 -0.052932 0.008891 -0.018335 -0.027524 0.038210 0.032066 0.104833 0.095463 0.012996 0.066723 -0.065479 -0.049651 0.037641 -0.062980 -0.067021 0.050251 0.068393 0.007482 0.054872 0.055668 0.053863 0.131796 -0.006679 0.027092 0.116224 0.002180 0.104406 -0.008075 0.032635 -0.032910 0.127115 0.035211 0.093486 0.126120 0.069881 -0.084978 0.036667 0.024114 -0.037542 -0.014718 0.001798 0.034430 0.027388 0.146756 0.052488 0.156291 0.098493 -0.015676 0.000332 -0.039213 0.005564 0.032893 0.033371 0.061486 0.096588 0.138345 0.078291 0.072192 0.056709 0.088876 0.073287 0.039892 -0.053422 0.052508 0.138990 0.108958 0.120173 0.112269 0.003251 0.074126 0.028924 -0.044605 0.008779 0.067208 0.121572 0.073222 -0.024714 -0.036676 0.058077 0.054297 0.043996 0.055439 0.013810 -0.006956 -0.008352 0.073561 0.013360 0.124331 -0.026859 0.095719 -0.073432 0.143613 0.160380 -0.108212 -0.019036 -0.173900 -0.238261 0.191805 -0.099826 0.101853 0.525421 0.290555 0.218151 0.106437 0.397993 0.177496 0.255887 -0.123570 -1.728449
0.072396 0.072835 0.074151 0.076345 0.079415 0.083361 0.088183 0.093878 0.100446 0.107885 0.116191 0.125362 0.135395 0.146284 0.158024 0.170609 0.184031 0.198281 0.213350 0.229224 0.245890 0.263333 0.281535 0.300475 0.320132 0.340479 0.361488 0.383128 0.405364 0.428159 0.451469 0.475250 0.499451 0.524017 0.548891 0.574009 0.599303 0.624699 0.650120 0.675482 0.700697 0.725671 0.750306 0.774497 0.798136 0.821109 0.843296 0.864573 0.884815 0.903887 0.921655 0.937981 0.952723 0.965737 0.976880 0.986005 0.992968 0.997624 0.999831 0.999452 0.996350 0.990396 0.981468 0.969452 0.954242 0.935743 0.913874 0.888568 0.859771 0.827449 0.791583 0.752180 0.709262 0.662880 0.613107 0.560041 0.503809 0.444568 0.382499 0.317819 0.250771 0.181631 0.110707 0.038333 0.035121 0.109260 0.183661 0.257873 0.331423 0.403814 0.474532 0.543048 0.608820 0.671301 0.729939 0.784185 0.833500 0.877355 0.915243 0.946683 0.971227 0.988465 0.998033 0.999623 0.992984 0.977931 0.954354 0.922219 0.881577 0.832566 0.775417 0.710457 0.638109 0.558894 0.473432 0.382440 0.286726 0.187190 0.084811 0.019353 0.124180 0.228492 0.331068 0.430658 0.525999 0.615827 0.698903 0.774022 0.840039 0.895886 0.940591 0.973300 0.993291 1.000000 0.993028 0.972164 0.937394 0.888913 0.827130 0.752675 0.666400 0.569375 0.462880 0.348393 0.227580 0.102268 0.025575 0.153868 0.280453 0.403125 0.519678 0.627936 0.725803 0.811308 0.882640 0.938200 0.976638 0.996891 0.998218 0.980232 0.942918 0.886656 0.812227 0.720815 0.613998 0.493729 0.362315 0.222374 0.076790 0.071335 0.218754 0.362137 0.498147 0.623524 0.735160 0.830188 0.906055 0.960604 0.992142 0.999500 0.982089 0.939929 0.873683 0.784657 0.674791 0.546635 0.403300 0.248393 0.085935 0.079734 0.244068 0.402437 0.550261 0.683142 0.797003 0.888220 0.953750 0.991245 0.999145 0.976759 0.924317 0.842994 0.734905 0.603073 0.451361 0.284374 0.107327 0.074096 0.253929 0.426119 0.584721 0.724117 0.839222 0.925680 0.980045 0.999935 0.984157 0.932783 0.847193 0.730069 0.585330 0.418026 0.234179 0.040587 0.155424 0.346271 0.524399 0.682592 0.814276 0.913797 0.976693 0.999909 0.981969 0.923089 0.825214 0.691992 0.528668 0.341899 0.139506 0.069835 0.276958 0.472601 0.647831 0.794454 0.905418 0.975172 0.999973 0.978113 0.910054 0.798478 0.648208 0.466045 0.260484 0.041339 0.180704 0.394603 0.589506 0.755319 0.883233 0.966228 0.999478 0.980675 0.910210 0.791231 0.629545 0.433377 0.212981 0.019865 0.252475 0.471939 0.665841 0.822976 0.934026 0.992135 0.993378 0.937063 0.825850 0.665690 0.465542 0.236924 0.006732 0.250835 0.480505 0.681493 0.841066 0.948852 0.997550 0.983469 0.906849 0.771946 0.586853 0.363069 0.114816 0.141820 0.389922 0.612861 0.795411 0.924824 0.991761 0.991010 0.921946 0.788685 0.599904 0.368333 0.109944 0.157108 0.413749 0.641350 0.823085 0.945221 0.998188 0.977400 0.883697 0.723415 0.508026 0.253373 0.021440 0.295453 0.547434 0.757541 0.908911 0.989049 0.990933 0.913689 0.762796 0.549779 0.291406 0.008411 0.276120 0.538620 0.757009 0.912571 0.991616 0.986748 0.897634 0.731179 0.501078 0.226768 0.068152 0.357928 0.616881 0.821693 0.953565 0.999990 0.956023 0.824889 0.617847 0.353322 0.055328 0.248648 0.530178 0.762526 0.923265 0.996462 0.974368 0.858314 0.658763 0.394470 0.090802 0.222633 0.514853 0.756560 0.923120
1.000000 1.000000 1.000000 1.000000 1.000000 1.000000 1.000000 1.000000 1.000000 1.000000 1.000000 1.000000 1.000000 1.000000 1.000000 1.000000 1.000000 1.000000 1.000000 1.000000 1.000000 1.000000 1.000000 1.000000 1.000000 1.000000 1.000000 1.000000 1.000000 1.000000 1.000000 1.000000 1.000000 1.000000 1.000000 1.000000 1.000000 1.000000 1.000000 1.000000 1.000000 1.000000 1.000000 1.000000 1.000000 1.000000 1.000000 1.000000 1.000000 1.000000 1.000000 1.000000 0.806436 0.806436 0.806436 0.806436 0.806436 0.806436 0.806436 0.784598 0.784598 0.784598 0.784598 0.784598 0.784598 0.784598 0.784598 0.784598 0.784598 0.784598 0.784598 0.784598 0.784598 0.784598 0.784598 0.784598 0.784598 0.784598 0.784598 0.784598 0.784598 0.784598 0.784598 0.784598 0.784598 0.784598 0.784598 0.784598 0.784598 0.784598 0.784598 0.784598 0.784598 0.784598 0.784598 0.784598 0.784598 0.784598 0.784598 0.784598 0.784598 0.784598 0.784598 0.933681 0.932844 0.934266 0.932688 0.934871 0.933633 0.932679 0.934041 0.932966 0.930748 0.930307 0.930812 0.931848 0.931996 0.937060 0.938401 0.947161 0.951252 0.952199 0.951932 0.950530 0.960628 0.958501 0.956700 0.950244 0.951431 0.952563 0.953425 0.952368 0.951766 0.952962 0.953880 0.952379 0.950494 0.949641 0.948812 0.948051 0.947782 0.948079 0.948142 0.947948 0.948800 0.949544 0.948655 0.950745 0.949558 0.949413 0.945878 0.944289 0.945946 0.944150 0.944552 0.941095 0.936935 0.936121 0.935488 0.935079 0.936133 0.937162 0.937845 0.938426 0.939079 0.939215 0.939070 0.939535 0.936761 0.930454 0.926708 0.924084 0.925296 0.928347 0.931145 0.929016 0.924557 0.924561 0.920042 0.917167 0.903484 0.890675 0.887622 0.885048 0.887265 0.889957 0.889644 0.887199 0.885792 0.885738 0.883998 0.888123 0.889007 0.880544 0.870876 0.869434 0.865309 0.869923 0.874523 0.876213 0.885058 0.879797 0.866378 0.861674 0.863011 0.865322 0.872543 0.868742 0.864482 0.860139 0.857243 0.847791 0.840024 0.837751 0.839106 0.841177 0.840821 0.844921 0.835663 0.806583 0.805723 0.801394 0.800666 0.811638 0.820321 0.821928 0.814112 0.790467 0.780088 0.764028 0.764763 0.767895 0.758839 0.761870 0.743916 0.742863 0.717760 0.718719 0.715668 0.710470 0.716759 0.712042 0.715967 0.714519 0.715635 0.715971 0.695738 0.688387 0.658773 0.662684 0.603122 0.611313 0.611906 0.591626 0.576027 0.552087 0.568775 0.577555 0.579760 0.557415 0.550039 0.526558 0.511743 0.510822 0.517379 0.517821 0.520363 0.512990 0.503690 0.495867 0.515776 0.526685 0.511155 0.512262 0.530431 0.527955 0.520920 0.505205 0.495105 0.510627 0.530602 0.537762 0.538254 0.543918 0.515815 0.486972 0.511194 0.526275 0.520786 0.509192 0.495705 0.491153 0.509623 0.483369 0.500372 0.492253 0.503177 0.479984 0.423918 0.380467 0.325290 0.333984 0.331806 0.330131 0.323588 0.329734 0.349717 0.357649 0.363159 0.362574 0.386389 0.426288 0.371301 0.378799 0.378727 0.377600 0.380213 0.377339 0.351097 0.360751 0.382475 0.386337 0.335959 0.323208 0.292192 0.279872 0.289655 0.302811 0.320235 0.307724 0.291500 0.166037 0.190323 0.207826 0.207826 0.207826 0.207826 0.207826 0.207826 0.207826 0.207826 0.207826 0.207826 0.207826 0.156197 0.156197 0.156197 0.156197 0.156197 0.156197 0.156197 0.156197 0.156197 0.156197 0.156197 0.156197 0.156197 0.156197 0.156197 0.156197 0.156197 0.156197 0.156197
0.000000 0.000000 0.000000 0.000000 0.000000 0.000000 0.000000 0.000000 0.000000 0.000000 0.000000 0.000000 0.000000 0.000000 0.000000 0.000000 0.000000 0.000000 0.000000 0.000000 0.000000 0.000000 0.000000 0.000000 0.000000 0.000000 0.000000 0.000000 0.000000 0.000000 0.000000 0.000000 0.000000 0.000000 0.000000 0.000000 0.000000 0.000000 0.000000 0.000000 0.000000 0.000000 0.000000 0.000000 0.000000 0.000000 0.000000 0.000000 0.000000 0.000000 0.000000 0.000000 0.173422 0.173422 0.173422 0.173422 0.173422 0.173422 0.173422 0.191565 0.191565 0.191565 0.191565 0.191565 0.191565 0.191565 0.191565 0.191565 0.191565 0.191565 0.191565 0.191565 0.191565 0.191565 0.191565 0.191565 0.191565 0.191565 0.191565 0.191565 0.191565 0.191565 0.191565 0.191565 0.191565 0.191565 0.191565 0.191565 0.191565 0.191565 0.191565 0.191565 0.191565 0.191565 0.191565 0.191565 0.191565 0.191565 0.191565 0.191565 0.191565 0.191565 0.191565 0.222222 0.222222 0.222222 0.222222 0.222222 0.222222 0.222222 0.222222 0.222222 0.222222 0.222222 0.222222 0.222222 0.222222 0.222222 0.222222 0.222222 0.222222 0.222222 0.222222 0.222222 0.222222 0.222222 0.222222 0.222222 0.222222 0.222222 0.222222 0.222222 0.222222 0.234082 0.234082 0.234082 0.234082 0.234082 0.234082 0.234082 0.234082 0.234082 0.234082 0.234082 0.234082 0.234082 0.234082 0.234082 0.234082 0.234082 0.234082 0.234082 0.234082 0.234082 0.234082 0.234082 0.234082 0.234082 0.244339 0.244339 0.244339 0.244339 0.244339 0.244339 0.244339 0.244339 0.244339 0.244339 0.244339 0.244339 0.244339 0.244339 0.244339 0.244339 0.244339 0.244339 0.244339 0.244339 0.244339 0.248069 0.248069 0.248069 0.248069 0.248069 0.248069 0.248069 0.248069 0.248069 0.248069 0.248069 0.248069 0.248069 0.248069 0.248069 0.248069 0.248069 0.248069 0.248069 0.248069 0.248069 0.248069 0.248069 0.248069 0.248069 0.248069 0.248069 0.248069 0.248069 0.248069 0.248069 0.248069 0.248069 0.248069 0.248069 0.248069 0.248069 0.256074 0.256074 0.256074 0.256074 0.256074 0.256074 0.256074 0.256074 0.256074 0.256074 0.256074 0.256074 0.256074 0.256074 0.256074 0.256074 0.256074 0.256074 0.256074 0.256074 0.256074 0.256074 0.256074 0.256074 0.256074 0.256074 0.256074 0.256074 0.256074 0.256074 0.256074 0.256074 0.256074 0.256074 0.256074 0.256074 0.256074 0.256074 0.256074 0.256074 0.256074 0.256074 0.256074 0.256074 0.256074 0.260378 0.260378 0.260378 0.260378 0.260378 0.260378 0.260378 0.260378 0.260378 0.260378 0.260378 0.260378 0.260378 0.256074 0.256074 0.256074 0.256074 0.256074 0.256074 0.256074 0.256074 0.256074 0.256074 0.256074 0.256074 0.256074 0.260378 0.260378 0.260378 0.260378 0.260378 0.260378 0.260378 0.260378 0.260378 0.260378 0.260378 0.260378 0.251976 0.251976 0.251976 0.251976 0.251976 0.251976 0.251976 0.251976 0.251976 0.251976 0.251976 0.251976 0.256074 0.256074 0.256074 0.256074 0.256074 0.256074 0.256074 0.256074 0.256074 0.256074 0.256074 0.251976 0.251976 0.251976 0.251976 0.251976 0.251976 0.251976 0.251976 0.251976 0.251976 0.251976 0.248069 0.248069 0.248069 0.248069 0.248069 0.248069 0.248069 0.248069 0.248069 0.248069 0.248069 0.256074 0.256074 0.256074 0.256074 0.256074 0.256074 0.256074 0.256074 0.256074 0.256074 0.256074 0.256074 0.256074 0.256074 0.256074 0.256074 0.256074 0.256074 0.256074
