# Output from CTFFind version 4.1.9, run on 2019-11-03 20:08:21
# Input file: stack16_bm3d_averaged_1_5.5_0_1500_half.mrc ; Number of micrographs: 1
# Pixel size: 3.000 Angstroms ; acceleration voltage: 300.0 keV ; spherical aberration: 0.00 mm ; amplitude contrast: 0.07
# Box size: 512 pixels ; min. res.: 30.0 Angstroms ; max. res.: 5.0 Angstroms ; min. def.: 5000.0 um; max. def. 50000.0 um; num. frames averaged: 1
# 6 lines per micrograph: #1 - spatial frequency (1/Angstroms); #2 - 1D rotational average of spectrum (assuming no astigmatism); #3 - 1D rotational average of spectrum; #4 - CTF fit; #5 - cross-correlation between spectrum and CTF fit; #6 - 2sigma of expected cross correlation of noise
0.000000 0.000651 0.001302 0.001953 0.002604 0.003255 0.003906 0.004557 0.005208 0.005859 0.006510 0.007161 0.007812 0.008464 0.009115 0.009766 0.010417 0.011068 0.011719 0.012370 0.013021 0.013672 0.014323 0.014974 0.015625 0.016276 0.016927 0.017578 0.018229 0.018880 0.019531 0.020182 0.020833 0.021484 0.022135 0.022786 0.023438 0.024089 0.024740 0.025391 0.026042 0.026693 0.027344 0.027995 0.028646 0.029297 0.029948 0.030599 0.031250 0.031901 0.032552 0.033203 0.033854 0.034505 0.035156 0.035807 0.036458 0.037109 0.037760 0.038411 0.039062 0.039714 0.040365 0.041016 0.041667 0.042318 0.042969 0.043620 0.044271 0.044922 0.045573 0.046224 0.046875 0.047526 0.048177 0.048828 0.049479 0.050130 0.050781 0.051432 0.052083 0.052734 0.053385 0.054036 0.054688 0.055339 0.055990 0.056641 0.057292 0.057943 0.058594 0.059245 0.059896 0.060547 0.061198 0.061849 0.062500 0.063151 0.063802 0.064453 0.065104 0.065755 0.066406 0.067057 0.067708 0.068359 0.069010 0.069661 0.070312 0.070964 0.071615 0.072266 0.072917 0.073568 0.074219 0.074870 0.075521 0.076172 0.076823 0.077474 0.078125 0.078776 0.079427 0.080078 0.080729 0.081380 0.082031 0.082682 0.083333 0.083984 0.084635 0.085286 0.085938 0.086589 0.087240 0.087891 0.088542 0.089193 0.089844 0.090495 0.091146 0.091797 0.092448 0.093099 0.093750 0.094401 0.095052 0.095703 0.096354 0.097005 0.097656 0.098307 0.098958 0.099609 0.100260 0.100911 0.101562 0.102214 0.102865 0.103516 0.104167 0.104818 0.105469 0.106120 0.106771 0.107422 0.108073 0.108724 0.109375 0.110026 0.110677 0.111328 0.111979 0.112630 0.113281 0.113932 0.114583 0.115234 0.115885 0.116536 0.117188 0.117839 0.118490 0.119141 0.119792 0.120443 0.121094 0.121745 0.122396 0.123047 0.123698 0.124349 0.125000 0.125651 0.126302 0.126953 0.127604 0.128255 0.128906 0.129557 0.130208 0.130859 0.131510 0.132161 0.132812 0.133464 0.134115 0.134766 0.135417 0.136068 0.136719 0.137370 0.138021 0.138672 0.139323 0.139974 0.140625 0.141276 0.141927 0.142578 0.143229 0.143880 0.144531 0.145182 0.145833 0.146484 0.147135 0.147786 0.148438 0.149089 0.149740 0.150391 0.151042 0.151693 0.152344 0.152995 0.153646 0.154297 0.154948 0.155599 0.156250 0.156901 0.157552 0.158203 0.158854 0.159505 0.160156 0.160807 0.161458 0.162109 0.162760 0.163411 0.164062 0.164714 0.165365 0.166016 0.166667 0.167318 0.167969 0.168620 0.169271 0.169922 0.170573 0.171224 0.171875 0.172526 0.173177 0.173828 0.174479 0.175130 0.175781 0.176432 0.177083 0.177734 0.178385 0.179036 0.179688 0.180339 0.180990 0.181641 0.182292 0.182943 0.183594 0.184245 0.184896 0.185547 0.186198 0.186849 0.187500 0.188151 0.188802 0.189453 0.190104 0.190755 0.191406 0.192057 0.192708 0.193359 0.194010 0.194661 0.195312 0.195964 0.196615 0.197266 0.197917 0.198568 0.199219 0.199870 0.200521 0.201172 0.201823 0.202474 0.203125 0.203776 0.204427 0.205078 0.205729 0.206380 0.207031 0.207682 0.208333 0.208984 0.209635 0.210286 0.210938 0.211589 0.212240 0.212891 0.213542 0.214193 0.214844 0.215495 0.216146 0.216797 0.217448 0.218099 0.218750 0.219401 0.220052 0.220703 0.221354 0.222005 0.222656 0.223307 0.223958 0.224609 0.225260 0.225911 0.226562 0.227214 0.227865 0.228516 0.229167 0.229818 0.230469 0.231120 0.231771 0.232422 0.233073 0.233724 0.234375 0.235026 0.235677
       0.33941        0.33941        0.33941        0.33941        0.33941        0.33941        0.33941        0.33941        0.33941        0.33941        0.33941        0.33941        0.33941        0.33941        0.33941        0.33941        0.33941        0.33941        0.33941        0.33941        0.33941        0.33941        0.33941        0.33941        0.33941        0.33941        0.33941        0.33941        0.33941        0.33941        0.33941        0.33941        0.33941        0.33941        0.33941        0.33941        0.33941        0.33941        0.33941        0.33941        0.33941        0.33941        0.33941        0.33941        0.33941        0.33941        0.33941        0.33941        0.33941        0.33941        0.33941        0.42099        0.55530        0.34157       -0.21115       -0.45752       -0.55299       -0.65187       -0.72338       -0.73410       -0.83183       -0.90057       -0.69539       -0.85300       -0.83210       -0.97933       -1.01575       -0.89779       -0.85685       -0.80939       -0.72784       -0.65770       -0.56972       -0.47490       -0.40801       -0.17999       -0.07648        0.02188        0.24609        0.24975        0.30623        0.36743        0.39520        0.50857        0.53325        0.56944        0.53018        0.46900        0.50407        0.51568        0.43679        0.32467        0.20392        0.17257        0.10464       -0.00561       -0.02174       -0.02994        0.04414        0.00902        0.06282        0.03755        0.15272        0.18871        0.40204        0.45525        0.54713        0.65550        0.68793        0.71212        0.63262        0.60937        0.53125        0.43432        0.38186        0.26580        0.20913        0.20231        0.09123        0.09636        0.08719        0.07540        0.08850        0.29968        0.40866        0.51329        0.53122        0.57084        0.60716        0.58589        0.57431        0.58015        0.56162        0.46140        0.29594        0.25619        0.24150        0.13614        0.08077        0.15459        0.18811        0.27446        0.34767        0.41859        0.46834        0.52743        0.59879        0.54299        0.50504        0.49244        0.35025        0.25902        0.24774        0.16741        0.17679        0.21842        0.26261        0.27402        0.31456        0.41862        0.45162        0.49694        0.44963        0.44097        0.47825        0.38365        0.32328        0.27900        0.24791        0.22222        0.22324        0.23210        0.32875        0.43380        0.42400        0.48660        0.54940        0.44000        0.40765        0.35122        0.30322        0.25819        0.27100        0.26437        0.28174        0.33212        0.34340        0.42496        0.46882        0.43333        0.45167        0.36443        0.37235        0.35043        0.25942        0.24077        0.23876        0.31474        0.37080        0.36247        0.38572        0.43001        0.43303        0.36649        0.33435        0.31348        0.34353        0.30348        0.27188        0.27377        0.34400        0.36349        0.37825        0.38531        0.37999        0.40938        0.39282        0.31037        0.28211        0.31092        0.33840        0.36426        0.35465        0.39960        0.33620        0.36657        0.38662        0.32813        0.34801        0.31114        0.29268        0.33315        0.33321        0.32080        0.34170        0.36112        0.32105        0.34052        0.31087        0.30843        0.28446        0.31117        0.30529        0.32329        0.36118        0.36163        0.34337        0.30087        0.28891        0.27967        0.32193        0.30107        0.30839        0.36247        0.35565        0.33553        0.30645        0.29906        0.30676        0.26859        0.30069        0.31438        0.32451        0.36161        0.33865        0.29578        0.32688        0.32823        0.31741        0.35156        0.33928        0.30495        0.32846        0.28700        0.31771        0.28655        0.30500        0.28599        0.31505        0.35364        0.32785        0.34830        0.30265        0.31578        0.33902        0.33070        0.30476        0.30410        0.34246        0.32811        0.32239        0.31461        0.30819        0.30113        0.30582        0.31601        0.31680        0.34030        0.33796        0.33508        0.28634        0.27574        0.26285        0.26315        0.35690        0.30613        0.34834        0.29154        0.25730        0.27796        0.35614        0.30238        0.27759        0.29210        0.30941        0.29009        0.26591        0.30583        0.26747        0.27401        0.29997        0.31960        0.32890        0.31835        0.29592        0.26232        0.26173        0.25640        0.26394        0.28685        0.35301        0.28458        0.19668        0.29591        0.27251        0.31143        0.23845        0.30169        0.30585        0.32883        0.28636        0.27201        0.26293        0.23531        0.29078        0.34116        0.35045        0.23909        0.27452        0.22083        0.22194        0.20248        0.33157        0.24522        0.19444        0.13076        0.22099        0.30426        0.20471        0.18040        0.07340       -0.54279       -0.67695
3.139942 3.100352 3.061018 3.021940 2.983119 2.944553 2.906243 2.868190 2.830393 2.792852 2.755566 2.718537 2.681764 2.645247 2.608986 2.572982 2.537233 2.501740 2.466504 2.431524 2.396799 2.362331 2.328119 2.294163 2.260463 2.227019 2.193831 2.160900 2.128224 2.095805 2.063641 2.031734 2.000083 1.968687 1.937548 1.906665 1.876039 1.845668 1.815553 1.785694 1.756092 1.726745 1.697655 1.668821 1.640243 1.611920 1.583854 1.556044 1.528491 1.501193 1.474151 1.508610 1.595066 1.534988 0.846595 0.590443 0.451172 0.382868 0.287824 0.210535 0.174098 -0.053540 0.198522 0.062926 -0.035473 -0.117905 -0.241787 -0.149493 -0.063458 -0.094435 -0.079840 0.031721 0.027485 0.221969 0.104875 0.351974 0.460154 0.484539 0.761897 0.686011 0.689855 0.828564 0.797750 0.835797 0.919553 0.861127 0.893390 0.727824 0.797881 0.846356 0.681567 0.605505 0.439645 0.425680 0.345310 0.186466 0.183317 0.116186 0.210652 0.119763 0.210944 0.106648 0.221468 0.233090 0.450097 0.409853 0.583553 0.622600 0.657724 0.727818 0.615736 0.594465 0.466007 0.416133 0.299597 0.268508 0.100752 0.161359 -0.022677 0.039204 -0.033585 -0.039203 -0.044738 0.034871 0.280105 0.298322 0.373216 0.317304 0.398187 0.409777 0.435948 0.416823 0.364076 0.343719 0.132788 0.085323 0.067111 -0.010600 -0.152122 -0.041007 -0.066977 0.041902 0.087481 0.162386 0.230514 0.237934 0.327288 0.420371 0.304013 0.368986 0.248183 0.140856 0.068301 0.045594 0.004248 0.046053 0.073078 0.104712 0.118860 0.181661 0.242959 0.309682 0.286211 0.224512 0.260583 0.230662 0.112844 0.074765 0.048585 0.032011 0.007753 -0.007043 0.036163 0.172451 0.190516 0.196902 0.307636 0.192516 0.202433 0.082070 0.072720 0.001068 -0.006107 0.003401 -0.003510 0.041894 0.057790 0.094512 0.158628 0.144968 0.223933 0.130870 0.077916 0.102354 0.047585 -0.058475 -0.024863 0.019973 0.058821 0.075086 0.075652 0.154695 0.125024 0.152034 0.038102 0.054880 0.045850 0.050570 0.024354 -0.021707 0.038239 0.045565 0.087612 0.107186 0.091189 0.108817 0.126808 0.075539 0.012965 -0.002580 0.032356 0.080345 0.064226 0.098713 0.094593 0.050953 0.110608 0.067825 0.042194 0.081180 -0.019294 0.020491 0.062000 0.037895 0.044033 0.054940 0.071135 0.052637 0.061812 0.011720 0.019767 -0.002077 0.046960 0.002677 0.046494 0.068241 0.072739 0.039102 -0.010131 -0.007480 -0.017576 0.033975 -0.000882 0.014059 0.069837 0.057549 -0.006491 0.009124 -0.012416 0.010147 -0.043943 -0.004586 0.002347 0.031313 0.047364 0.018940 -0.017517 0.006308 0.009212 0.002693 0.043323 0.012535 -0.015603 0.035510 -0.042362 -0.018772 -0.050814 -0.013545 -0.044790 0.014113 0.037128 -0.000837 0.002253 -0.006474 0.004281 0.022950 0.024038 -0.011933 -0.000365 0.023839 0.039664 0.014846 0.011317 0.034515 -0.006684 -0.000232 0.021082 -0.000192 0.076062 0.055202 0.033843 0.001008 -0.008561 -0.035587 -0.001177 0.078761 -0.002868 0.072683 -0.018699 -0.024149 -0.019178 0.094692 -0.003643 -0.015703 0.028035 0.044331 0.010365 0.006256 0.028792 0.004199 0.016792 0.028655 0.069199 0.075118 0.050772 0.033527 0.000072 -0.001167 -0.004862 -0.015723 0.004333 0.107253 -0.024537 -0.093549 0.054695 -0.013884 0.053180 -0.063206 0.012475 0.017730 0.022854 0.000621 -0.019206 -0.018841 -0.073782 0.025343 0.050565 0.067210 -0.126018 -0.002844 -0.035417 -0.016302 -0.123992 0.107065 0.012478 -0.007798 -0.077563 0.196082 0.254028 0.137934 0.142545 0.077723 -0.643112
0.072396 0.073047 0.074998 0.078250 0.082801 0.088649 0.095793 0.104230 0.113956 0.124964 0.137250 0.150804 0.165617 0.181675 0.198964 0.217464 0.237155 0.258008 0.279995 0.303079 0.327220 0.352370 0.378476 0.405477 0.433304 0.461882 0.491125 0.520939 0.551219 0.581851 0.612710 0.643661 0.674557 0.705239 0.735539 0.765274 0.794253 0.822271 0.849116 0.874563 0.898377 0.920318 0.940136 0.957576 0.972379 0.984283 0.993026 0.998347 0.999990 0.997708 0.991262 0.980429 0.965001 0.944792 0.919643 0.889420 0.854025 0.813398 0.767519 0.716413 0.660159 0.598885 0.532779 0.462089 0.387127 0.308270 0.225960 0.140711 0.053100 0.036225 0.126556 0.217120 0.307091 0.395591 0.481699 0.564459 0.642892 0.716004 0.782805 0.842315 0.893586 0.935716 0.967866 0.989277 0.999291 0.997367 0.983098 0.956231 0.916681 0.864546 0.800119 0.723899 0.636595 0.539134 0.432657 0.318515 0.198260 0.073631 0.053466 0.180982 0.306756 0.428548 0.544080 0.651077 0.747320 0.830687 0.899212 0.951136 0.984958 0.999484 0.993878 0.967699 0.920940 0.854053 0.767971 0.664109 0.544364 0.411096 0.267096 0.115536 0.040083 0.196008 0.348324 0.493043 0.626216 0.744043 0.842989 0.919904 0.972132 0.997620 0.995012 0.963728 0.904025 0.817033 0.704768 0.570110 0.416762 0.249163 0.072383 0.108016 0.286149 0.455993 0.611595 0.747284 0.857896 0.938983 0.987015 0.999557 0.975416 0.914748 0.819111 0.691478 0.536177 0.358784 0.165952 0.034815 0.235441 0.427591 0.603024 0.753946 0.873389 0.955541 0.996075 0.992402 0.943870 0.851882 0.719910 0.553427 0.359722 0.147619 0.072888 0.291094 0.496092 0.677323 0.825140 0.931344 0.989683 0.996263 0.949856 0.852067 0.707364 0.522942 0.308421 0.075389 0.163182 0.393647 0.602461 0.776989 0.906308 0.981922 0.998389 0.953764 0.849854 0.692242 0.490070 0.255578 0.003413 0.250233 0.488666 0.695779 0.857171 0.961196 0.999862 0.969522 0.871280 0.711080 0.499446 0.250869 0.017104 0.285083 0.533208 0.742627 0.896978 0.983718 0.995221 0.929544 0.790762 0.588844 0.339042 0.060828 0.223567 0.490895 0.718793 0.887694 0.982580 0.994394 0.921022 0.767689 0.546730 0.276715 0.019006 0.314279 0.582408 0.798613 0.942350 0.999377 0.963260 0.836232 0.629226 0.361088 0.056976 0.253918 0.541118 0.775879 0.934108 0.998938 0.962652 0.827743 0.606943 0.322192 0.002570 0.318559 0.607009 0.831432 0.966793 0.997295 0.918364 0.737475 0.473635 0.155567 0.181310 0.498736 0.759971 0.934089 0.999772 0.948071 0.783807 0.525344 0.202751 0.145572 0.477365 0.751624 0.933729 0.999944 0.940683 0.762102 0.485699 0.145945 0.213863 0.547047 0.809583 0.966018 0.994411 0.889613 0.664388 0.348099 0.016893 0.380772 0.693025 0.909477 0.998694 0.946741 0.759597 0.462780 0.098097 0.282040 0.622081 0.871467 0.992257 0.965126 0.792702 0.499674 0.129551 0.261616 0.613600 0.871294 0.993459 0.959552 0.773453 0.463403 0.078009 0.321162 0.669332 0.909037 0.999782 0.925138 0.696009 0.349420 0.057193 0.455297 0.776757 0.965561 0.987827 0.838163 0.541226 0.148039 0.272537 0.645706 0.904058 0.999914 0.914412 0.661575 0.286407 0.142782 0.546620 0.849311 0.992992 0.949076 0.724301 0.360166 0.074364 0.495679 0.821538 0.987243 0.958760 0.740090 0.373239 0.069457 0.499333 0.829074 0.990571 0.949298 0.712084 0.326524 0.128159 0.557159 0.869759 0.998698 0.914984 0.634840 0.217095 0.248797 0.661646
1.000000 1.000000 1.000000 1.000000 1.000000 1.000000 1.000000 1.000000 1.000000 1.000000 1.000000 1.000000 1.000000 1.000000 1.000000 1.000000 1.000000 1.000000 1.000000 1.000000 1.000000 1.000000 1.000000 1.000000 1.000000 1.000000 1.000000 1.000000 1.000000 1.000000 1.000000 1.000000 1.000000 1.000000 1.000000 1.000000 1.000000 1.000000 1.000000 1.000000 1.000000 1.000000 1.000000 1.000000 1.000000 1.000000 1.000000 1.000000 1.000000 1.000000 1.000000 1.000000 0.926234 0.926234 0.926234 0.926234 0.926234 0.926234 0.926234 0.926234 0.926234 0.926234 0.926234 0.926234 0.926234 0.926234 0.926234 0.926234 0.926234 0.926234 0.926234 0.926234 0.926234 0.926234 0.926234 0.926234 0.926234 0.926234 0.926234 0.926234 0.926234 0.926234 0.926234 0.926234 0.926234 0.913316 0.911409 0.912571 0.913759 0.913666 0.913110 0.912745 0.913779 0.915329 0.917345 0.938963 0.941994 0.943160 0.944454 0.945878 0.948313 0.946294 0.954013 0.960637 0.959656 0.960665 0.954480 0.955790 0.955158 0.954429 0.956004 0.956076 0.954456 0.952546 0.951062 0.950557 0.950264 0.953788 0.954333 0.954502 0.955052 0.954984 0.955703 0.956309 0.954401 0.956585 0.948709 0.947507 0.952906 0.951020 0.952562 0.952525 0.953222 0.953997 0.954283 0.954527 0.951392 0.951049 0.950319 0.940949 0.934105 0.932952 0.935431 0.938728 0.936202 0.932383 0.933718 0.936191 0.935540 0.934885 0.925431 0.921617 0.898438 0.886620 0.875358 0.875783 0.878903 0.881240 0.878853 0.871018 0.861295 0.857529 0.857733 0.853629 0.846469 0.862781 0.857124 0.855564 0.859575 0.862651 0.868120 0.864939 0.860519 0.855945 0.851510 0.844669 0.846541 0.851081 0.855112 0.839449 0.830699 0.848190 0.837547 0.828747 0.836291 0.838345 0.835366 0.834229 0.835015 0.833090 0.826312 0.820960 0.824132 0.833100 0.832170 0.820950 0.817335 0.812915 0.812717 0.805835 0.809240 0.809344 0.805566 0.798561 0.814151 0.780357 0.803802 0.802792 0.788181 0.772356 0.761178 0.770249 0.781589 0.784316 0.775922 0.772052 0.771367 0.764563 0.737184 0.739832 0.747170 0.745549 0.733111 0.713935 0.721168 0.727384 0.722678 0.718523 0.721490 0.723047 0.695396 0.708455 0.712355 0.698186 0.713237 0.715261 0.706058 0.707349 0.709811 0.712314 0.705616 0.664929 0.667698 0.662831 0.655630 0.606028 0.605442 0.604134 0.551405 0.555334 0.522055 0.505190 0.504673 0.496957 0.545788 0.506610 0.491489 0.522168 0.450302 0.362216 0.377579 0.375712 0.389302 0.398328 0.377323 0.376698 0.364574 0.341147 0.350148 0.371480 0.387042 0.354838 0.356645 0.350243 0.321618 0.293873 0.307426 0.310718 0.332073 0.334608 0.312056 0.341331 0.378424 0.322504 0.298739 0.280430 0.286382 0.300074 0.305081 0.294064 0.270430 0.259981 0.233443 0.258607 0.252608 0.255720 0.271597 0.302898 0.297190 0.308656 0.329778 0.280749 0.295684 0.297261 0.287179 0.294468 0.301260 0.301121 0.289703 0.307903 0.278060 0.290438 0.272177 0.262133 0.329198 0.309278 0.280300 0.276395 0.281105 0.289173 0.261112 0.211924 0.194467 0.198956 0.135670 0.109121 0.109900 0.109529 0.066351 0.039996 0.024960 -0.013402 -0.013456 -0.011731 0.024413 -0.007117 0.017536 0.026412 0.026412 0.026412 0.026412 0.026412 0.026412 0.026412 0.026412 0.026412 0.026412 0.026412 0.026412 0.026412 0.026412 0.049114 0.049114 0.049114 0.049114 0.049114 0.049114 0.049114 0.049114 0.049114 0.049114 0.049114 0.049114
0.000000 0.000000 0.000000 0.000000 0.000000 0.000000 0.000000 0.000000 0.000000 0.000000 0.000000 0.000000 0.000000 0.000000 0.000000 0.000000 0.000000 0.000000 0.000000 0.000000 0.000000 0.000000 0.000000 0.000000 0.000000 0.000000 0.000000 0.000000 0.000000 0.000000 0.000000 0.000000 0.000000 0.000000 0.000000 0.000000 0.000000 0.000000 0.000000 0.000000 0.000000 0.000000 0.000000 0.000000 0.000000 0.000000 0.000000 0.000000 0.000000 0.000000 0.000000 0.000000 0.209657 0.209657 0.209657 0.209657 0.209657 0.209657 0.209657 0.209657 0.209657 0.209657 0.209657 0.209657 0.209657 0.209657 0.209657 0.209657 0.209657 0.209657 0.209657 0.209657 0.209657 0.209657 0.209657 0.209657 0.209657 0.209657 0.209657 0.209657 0.209657 0.209657 0.209657 0.209657 0.209657 0.244339 0.244339 0.244339 0.244339 0.244339 0.244339 0.244339 0.244339 0.244339 0.244339 0.244339 0.244339 0.244339 0.244339 0.244339 0.244339 0.244339 0.244339 0.244339 0.244339 0.244339 0.244339 0.244339 0.244339 0.244339 0.260378 0.260378 0.260378 0.260378 0.260378 0.260378 0.260378 0.260378 0.260378 0.260378 0.260378 0.260378 0.260378 0.260378 0.260378 0.260378 0.260378 0.260378 0.260378 0.260378 0.269680 0.269680 0.269680 0.269680 0.269680 0.269680 0.269680 0.269680 0.269680 0.269680 0.269680 0.269680 0.269680 0.269680 0.269680 0.269680 0.269680 0.269680 0.269680 0.269680 0.269680 0.269680 0.269680 0.269680 0.269680 0.269680 0.269680 0.269680 0.269680 0.269680 0.269680 0.269680 0.269680 0.280056 0.280056 0.280056 0.280056 0.280056 0.280056 0.280056 0.280056 0.280056 0.280056 0.280056 0.280056 0.280056 0.280056 0.280056 0.280056 0.280056 0.280056 0.280056 0.280056 0.280056 0.280056 0.280056 0.280056 0.280056 0.280056 0.280056 0.274721 0.274721 0.274721 0.274721 0.274721 0.274721 0.274721 0.274721 0.274721 0.274721 0.274721 0.274721 0.274721 0.285714 0.285714 0.285714 0.285714 0.285714 0.285714 0.285714 0.285714 0.285714 0.285714 0.285714 0.280056 0.280056 0.280056 0.280056 0.280056 0.280056 0.280056 0.280056 0.280056 0.280056 0.280056 0.274721 0.274721 0.274721 0.274721 0.274721 0.274721 0.274721 0.274721 0.274721 0.274721 0.274721 0.280056 0.280056 0.280056 0.280056 0.280056 0.280056 0.280056 0.280056 0.280056 0.280056 0.285714 0.285714 0.285714 0.285714 0.285714 0.285714 0.285714 0.285714 0.285714 0.269680 0.269680 0.269680 0.269680 0.269680 0.269680 0.269680 0.269680 0.269680 0.269680 0.274721 0.274721 0.274721 0.274721 0.274721 0.274721 0.274721 0.274721 0.274721 0.285714 0.285714 0.285714 0.285714 0.285714 0.285714 0.285714 0.285714 0.264906 0.264906 0.264906 0.264906 0.264906 0.264906 0.264906 0.264906 0.264906 0.274721 0.274721 0.274721 0.274721 0.274721 0.274721 0.274721 0.274721 0.269680 0.269680 0.269680 0.269680 0.269680 0.269680 0.269680 0.269680 0.269680 0.269680 0.269680 0.269680 0.269680 0.269680 0.269680 0.269680 0.280056 0.280056 0.280056 0.280056 0.280056 0.280056 0.280056 0.260378 0.260378 0.260378 0.260378 0.260378 0.260378 0.260378 0.260378 0.269680 0.269680 0.269680 0.269680 0.269680 0.269680 0.269680 0.264906 0.264906 0.264906 0.264906 0.264906 0.264906 0.264906 0.264906 0.264906 0.264906 0.264906 0.264906 0.264906 0.264906 0.260378 0.260378 0.260378 0.260378 0.260378 0.260378 0.260378 0.260378 0.260378 0.260378 0.260378 0.260378
