# Output from CTFFind version 4.1.9, run on 2019-11-03 20:07:00
# Input file: stack6_bm3d_averaged_1_10_0_1250_half.mrc ; Number of micrographs: 1
# Pixel size: 3.000 Angstroms ; acceleration voltage: 300.0 keV ; spherical aberration: 0.00 mm ; amplitude contrast: 0.07
# Box size: 512 pixels ; min. res.: 30.0 Angstroms ; max. res.: 5.0 Angstroms ; min. def.: 5000.0 um; max. def. 50000.0 um; num. frames averaged: 1
# 6 lines per micrograph: #1 - spatial frequency (1/Angstroms); #2 - 1D rotational average of spectrum (assuming no astigmatism); #3 - 1D rotational average of spectrum; #4 - CTF fit; #5 - cross-correlation between spectrum and CTF fit; #6 - 2sigma of expected cross correlation of noise
0.000000 0.000651 0.001302 0.001953 0.002604 0.003255 0.003906 0.004557 0.005208 0.005859 0.006510 0.007161 0.007812 0.008464 0.009115 0.009766 0.010417 0.011068 0.011719 0.012370 0.013021 0.013672 0.014323 0.014974 0.015625 0.016276 0.016927 0.017578 0.018229 0.018880 0.019531 0.020182 0.020833 0.021484 0.022135 0.022786 0.023438 0.024089 0.024740 0.025391 0.026042 0.026693 0.027344 0.027995 0.028646 0.029297 0.029948 0.030599 0.031250 0.031901 0.032552 0.033203 0.033854 0.034505 0.035156 0.035807 0.036458 0.037109 0.037760 0.038411 0.039062 0.039714 0.040365 0.041016 0.041667 0.042318 0.042969 0.043620 0.044271 0.044922 0.045573 0.046224 0.046875 0.047526 0.048177 0.048828 0.049479 0.050130 0.050781 0.051432 0.052083 0.052734 0.053385 0.054036 0.054688 0.055339 0.055990 0.056641 0.057292 0.057943 0.058594 0.059245 0.059896 0.060547 0.061198 0.061849 0.062500 0.063151 0.063802 0.064453 0.065104 0.065755 0.066406 0.067057 0.067708 0.068359 0.069010 0.069661 0.070312 0.070964 0.071615 0.072266 0.072917 0.073568 0.074219 0.074870 0.075521 0.076172 0.076823 0.077474 0.078125 0.078776 0.079427 0.080078 0.080729 0.081380 0.082031 0.082682 0.083333 0.083984 0.084635 0.085286 0.085938 0.086589 0.087240 0.087891 0.088542 0.089193 0.089844 0.090495 0.091146 0.091797 0.092448 0.093099 0.093750 0.094401 0.095052 0.095703 0.096354 0.097005 0.097656 0.098307 0.098958 0.099609 0.100260 0.100911 0.101562 0.102214 0.102865 0.103516 0.104167 0.104818 0.105469 0.106120 0.106771 0.107422 0.108073 0.108724 0.109375 0.110026 0.110677 0.111328 0.111979 0.112630 0.113281 0.113932 0.114583 0.115234 0.115885 0.116536 0.117188 0.117839 0.118490 0.119141 0.119792 0.120443 0.121094 0.121745 0.122396 0.123047 0.123698 0.124349 0.125000 0.125651 0.126302 0.126953 0.127604 0.128255 0.128906 0.129557 0.130208 0.130859 0.131510 0.132161 0.132812 0.133464 0.134115 0.134766 0.135417 0.136068 0.136719 0.137370 0.138021 0.138672 0.139323 0.139974 0.140625 0.141276 0.141927 0.142578 0.143229 0.143880 0.144531 0.145182 0.145833 0.146484 0.147135 0.147786 0.148438 0.149089 0.149740 0.150391 0.151042 0.151693 0.152344 0.152995 0.153646 0.154297 0.154948 0.155599 0.156250 0.156901 0.157552 0.158203 0.158854 0.159505 0.160156 0.160807 0.161458 0.162109 0.162760 0.163411 0.164062 0.164714 0.165365 0.166016 0.166667 0.167318 0.167969 0.168620 0.169271 0.169922 0.170573 0.171224 0.171875 0.172526 0.173177 0.173828 0.174479 0.175130 0.175781 0.176432 0.177083 0.177734 0.178385 0.179036 0.179688 0.180339 0.180990 0.181641 0.182292 0.182943 0.183594 0.184245 0.184896 0.185547 0.186198 0.186849 0.187500 0.188151 0.188802 0.189453 0.190104 0.190755 0.191406 0.192057 0.192708 0.193359 0.194010 0.194661 0.195312 0.195964 0.196615 0.197266 0.197917 0.198568 0.199219 0.199870 0.200521 0.201172 0.201823 0.202474 0.203125 0.203776 0.204427 0.205078 0.205729 0.206380 0.207031 0.207682 0.208333 0.208984 0.209635 0.210286 0.210938 0.211589 0.212240 0.212891 0.213542 0.214193 0.214844 0.215495 0.216146 0.216797 0.217448 0.218099 0.218750 0.219401 0.220052 0.220703 0.221354 0.222005 0.222656 0.223307 0.223958 0.224609 0.225260 0.225911 0.226562 0.227214 0.227865 0.228516 0.229167 0.229818 0.230469 0.231120 0.231771 0.232422 0.233073 0.233724 0.234375 0.235026 0.235677
       0.34236        0.34236        0.34236        0.34236        0.34236        0.34236        0.34236        0.34236        0.34236        0.34236        0.34236        0.34236        0.34236        0.34236        0.34236        0.34236        0.34236        0.34236        0.34236        0.34236        0.34236        0.34236        0.34236        0.34236        0.34236        0.34236        0.34236        0.34236        0.34236        0.34236        0.34236        0.34236        0.34236        0.34236        0.34236        0.34236        0.34236        0.34236        0.34236        0.34236        0.34236        0.34236        0.34236        0.34236        0.34236        0.34236        0.34236        0.34236        0.34236        0.34236        0.34236        0.58858        0.69392        0.36666        0.16024        0.14325       -0.12113        0.10989        0.04277        0.04432        0.08947        0.30744        0.29179        0.22782        0.13480       -0.04131       -0.00899        0.05497       -0.06867       -0.07713       -0.06509       -0.06319       -0.14689       -0.08701       -0.19748       -0.21592       -0.21973       -0.27429       -0.33811       -0.26261       -0.17572       -0.13257       -0.24537       -0.17826       -0.20538       -0.14401       -0.10088       -0.03787       -0.01671        0.03111        0.09061        0.16397        0.20447        0.24770        0.34986        0.41317        0.36720        0.49940        0.54685        0.55088        0.62256        0.54303        0.57634        0.60994        0.59613        0.56890        0.55891        0.60598        0.53386        0.40545        0.37031        0.38141        0.34043        0.22386        0.23128        0.19204        0.13726        0.12749        0.06420        0.14363        0.11375        0.09442        0.16574        0.21695        0.29449        0.33944        0.38049        0.42053        0.44944        0.47824        0.42567        0.61763        0.55152        0.47652        0.56215        0.50578        0.56726        0.51591        0.40230        0.34307        0.33238        0.29324        0.27925        0.22336        0.21033        0.19922        0.29250        0.27604        0.27820        0.25213        0.27585        0.34709        0.33540        0.45284        0.44646        0.44795        0.42513        0.48872        0.44290        0.41085        0.41632        0.38467        0.33583        0.28262        0.31817        0.28750        0.28283        0.23100        0.23818        0.26822        0.28748        0.29891        0.34604        0.39547        0.42520        0.42614        0.42814        0.51020        0.49249        0.42904        0.37695        0.42047        0.39766        0.33601        0.34740        0.33973        0.29173        0.29282        0.28389        0.27054        0.32744        0.31611        0.33449        0.35680        0.40482        0.43086        0.41457        0.44643        0.40671        0.44614        0.42521        0.36224        0.31153        0.30873        0.30941        0.28573        0.24736        0.31725        0.38968        0.34689        0.31932        0.38003        0.32074        0.36968        0.41700        0.40136        0.37091        0.36869        0.35683        0.36548        0.33277        0.32153        0.29625        0.29364        0.33524        0.34836        0.37501        0.38563        0.40020        0.37812        0.35428        0.33315        0.37082        0.37767        0.35713        0.33583        0.28625        0.29401        0.28596        0.33945        0.33803        0.36317        0.33448        0.35673        0.39818        0.34259        0.35936        0.35978        0.32410        0.32753        0.31066        0.30030        0.29298        0.28028        0.26464        0.28872        0.27970        0.29632        0.26821        0.31378        0.38075        0.27643        0.29983        0.28600        0.28438        0.33320        0.31823        0.31764        0.34053        0.33351        0.34368        0.32645        0.32271        0.32737        0.40493        0.36945        0.30287        0.32704        0.31648        0.36685        0.28619        0.29036        0.32100        0.31443        0.34243        0.38374        0.35044        0.29682        0.23711        0.30211        0.28385        0.27116        0.26865        0.30029        0.33037        0.26708        0.32279        0.34280        0.37924        0.29513        0.33648        0.30951        0.29653        0.29099        0.30009        0.31663        0.27286        0.26948        0.34875        0.35742        0.29311        0.35209        0.31906        0.26258        0.23884        0.21236        0.33837        0.31654        0.36390        0.36401        0.28581        0.23812        0.22765        0.31295        0.28204        0.27569        0.32828        0.30024        0.26060        0.29823        0.30820        0.30124        0.29939        0.29356        0.27782        0.23469        0.28126        0.32413        0.26217        0.21802        0.24057        0.27244        0.26350        0.21579        0.21220        0.27811        0.34548        0.30972        0.23841        0.17644        0.25445        0.18957        0.27415        0.26721        0.17651        0.17138        0.24556        0.22317        0.31782        0.03609       -0.19090       -0.68229       -0.96128
3.528588 3.490630 3.452880 3.415338 3.378006 3.340882 3.303967 3.267260 3.230763 3.194474 3.158394 3.122523 3.086861 3.051407 3.016162 2.981126 2.946299 2.911680 2.877271 2.843070 2.809078 2.775294 2.741720 2.708354 2.675197 2.642249 2.609509 2.576978 2.544656 2.512543 2.480639 2.448943 2.417456 2.386178 2.355109 2.324249 2.293597 2.263154 2.232920 2.202894 2.173078 2.143470 2.114071 2.084881 2.055899 2.027126 1.998562 1.970207 1.942061 1.914123 1.886394 2.245612 2.605625 1.870249 1.589697 1.366736 0.707018 1.168336 0.949496 1.072594 0.861859 1.676010 1.367699 1.387523 1.152274 0.677741 0.561453 0.859440 0.732078 0.381609 0.303475 0.558329 0.310613 0.330599 0.131709 0.008830 -0.021425 -0.021712 -0.370834 -0.143068 -0.009543 0.021275 -0.113734 -0.062361 -0.143498 -0.108407 0.010886 0.167134 0.213051 0.214105 0.353115 0.606925 0.517392 0.646538 0.779047 1.048834 0.765478 1.284175 1.184024 1.259734 1.363297 1.213608 1.159346 1.382165 1.150615 1.255058 1.136249 1.194658 1.161575 0.854102 0.644050 0.629185 0.682486 0.317177 0.341246 0.211890 0.097418 0.017592 -0.163577 0.103541 -0.001774 -0.095367 -0.012189 0.080122 0.211459 0.423372 0.442317 0.520322 0.525591 0.717632 0.427827 0.866610 0.863445 0.625445 0.752928 0.600886 0.765815 0.779644 0.474537 0.237363 0.261022 0.207066 0.020955 0.080583 -0.075828 -0.235299 0.061290 0.082538 0.060993 -0.023279 0.015870 0.136042 0.054546 0.316096 0.424371 0.407271 0.207277 0.495402 0.429942 0.226253 0.420652 0.264224 0.110692 0.107923 0.014527 0.081599 -0.130029 0.079073 -0.187294 -0.076511 -0.069909 0.125784 -0.117204 0.275054 0.249006 0.297850 0.260260 0.326371 0.619735 0.348329 0.284507 0.380586 0.194898 0.381587 0.056265 0.258550 0.050389 0.069309 0.051443 0.045401 0.031634 0.166549 0.050274 0.184735 0.262356 0.306596 0.306735 0.464245 0.338991 0.349101 0.381597 0.286502 0.185378 0.088646 0.095352 0.087423 0.024828 -0.022474 0.212342 0.297414 0.096629 0.170948 0.241347 0.135850 0.267025 0.354141 0.250435 0.187455 0.140601 0.245599 0.119217 0.128965 0.092631 -0.061510 0.072255 0.152114 0.141052 0.230890 0.208246 0.296567 0.110363 0.173892 0.186027 0.253792 0.140472 0.220656 0.118989 0.004919 0.037051 0.007345 0.150600 0.141589 0.206450 0.096999 0.202281 0.225196 0.034121 0.194105 0.096462 0.009358 0.054955 0.020990 -0.022105 -0.031803 -0.115025 -0.030449 -0.016137 -0.125399 -0.017751 -0.067436 0.065379 0.124493 -0.138702 -0.023197 -0.075816 -0.065514 0.066917 0.004989 -0.057913 0.031050 0.089488 0.008725 -0.027222 0.031815 -0.030382 0.271626 -0.015291 -0.132010 0.025473 -0.005425 0.065128 -0.169142 -0.072609 0.008342 0.002670 0.076116 0.102171 0.089416 -0.097168 -0.134214 -0.018686 -0.067174 -0.060175 -0.068084 -0.025977 0.069995 -0.163975 0.152132 0.059258 0.200045 -0.005531 0.097014 0.054643 -0.028124 0.089508 0.039058 -0.002817 -0.022037 -0.025357 0.163370 0.190007 -0.095342 0.190874 0.090175 -0.092642 -0.063365 -0.174327 0.214054 0.035049 0.216981 0.220826 0.145782 -0.172195 -0.136623 0.055025 -0.012371 -0.088356 0.089020 -0.002637 -0.119364 0.022577 0.108685 -0.114261 0.059493 -0.051448 0.020076 -0.233663 0.061648 0.083737 -0.096878 -0.152541 -0.148589 -0.018077 -0.035498 -0.140162 -0.189904 0.074157 0.149152 0.021186 -0.084129 -0.335592 0.079991 -0.203075 0.660710 0.542709 0.304954 0.372563 0.683078 0.544665 0.660301 -0.192664 -0.408375 -2.115970
0.072396 0.072836 0.074156 0.076355 0.079434 0.083391 0.088225 0.093936 0.100521 0.107979 0.116308 0.125503 0.135562 0.146480 0.158251 0.170869 0.184327 0.198614 0.213721 0.229637 0.246346 0.263833 0.282081 0.301068 0.320773 0.341169 0.362228 0.383919 0.406206 0.429052 0.452413 0.476243 0.500493 0.525107 0.550026 0.575187 0.600521 0.625954 0.651408 0.676799 0.702037 0.727029 0.751675 0.775870 0.799505 0.822465 0.844629 0.865875 0.886073 0.905090 0.922791 0.939036 0.953683 0.966588 0.977606 0.986591 0.993397 0.997880 0.999896 0.999308 0.995980 0.989782 0.980593 0.968297 0.952791 0.933981 0.911784 0.886136 0.856984 0.824294 0.788052 0.748263 0.704955 0.658179 0.608011 0.554553 0.497935 0.438316 0.375884 0.310857 0.243484 0.174045 0.102851 0.030243 0.043406 0.117695 0.192197 0.266456 0.339994 0.412311 0.482888 0.551193 0.616680 0.678799 0.736996 0.790722 0.839434 0.882607 0.919732 0.950331 0.973958 0.990209 0.998725 0.999203 0.991400 0.975142 0.950327 0.916934 0.875024 0.824751 0.766361 0.700194 0.626690 0.546389 0.459926 0.368035 0.271543 0.171365 0.068498 0.035986 0.140951 0.245206 0.347520 0.446634 0.541278 0.630188 0.712123 0.785882 0.850327 0.904402 0.947148 0.977730 0.995451 0.999769 0.990320 0.966924 0.929604 0.878595 0.814347 0.737535 0.649053 0.550017 0.441748 0.325771 0.203787 0.077663 0.050603 0.178905 0.305063 0.426860 0.542082 0.648560 0.744210 0.827080 0.895395 0.947595 0.982383 0.998755 0.996039 0.973922 0.932474 0.872162 0.793854 0.698827 0.588749 0.465661 0.331950 0.190309 0.043687 0.104764 0.251759 0.393945 0.527983 0.650628 0.758807 0.849708 0.920854 0.970182 0.996111 0.997602 0.974205 0.926094 0.854090 0.759660 0.644904 0.512526 0.365778 0.208391 0.044495 0.121493 0.284973 0.441299 0.585903 0.714442 0.822926 0.907854 0.966344 0.996234 0.996181 0.965732 0.905366 0.816516 0.701556 0.563755 0.407201 0.236702 0.057637 0.124192 0.302752 0.471973 0.625956 0.759190 0.866758 0.944523 0.989318 0.999078 0.972963 0.911421 0.816219 0.690418 0.538296 0.365229 0.177516 0.017836 0.213366 0.401434 0.574528 0.725565 0.848193 0.937076 0.988140 0.998790 0.968057 0.896694 0.787189 0.643723 0.472023 0.279174 0.073336 0.136585 0.341311 0.531602 0.698680 0.834650 0.932878 0.988354 0.997964 0.960696 0.877749 0.752538 0.590589 0.399330 0.187780 0.033859 0.254676 0.463591 0.649903 0.803857 0.917174 0.983519 0.998889 0.961891 0.873881 0.738971 0.563875 0.357619 0.131103 0.103450 0.333143 0.545108 0.727234 0.868878 0.961514 0.999281 0.979392 0.902377 0.772136 0.595797 0.383362 0.147192 0.098696 0.339446 0.560243 0.747249 0.888482 0.974622 0.999659 0.961366 0.861532 0.705942 0.504103 0.268709 0.014877 0.240790 0.481283 0.690324 0.853487 0.959219 0.999709 0.971518 0.875911 0.718892 0.510880 0.266087 0.001570 0.263909 0.511216 0.722218 0.881153 0.975825 0.998610 0.947119 0.824499 0.639322 0.405048 0.139113 0.138336 0.405942 0.642781 0.830005 0.952393 0.999634 0.967260 0.857133 0.677435 0.442141 0.169985 0.116973 0.395097 0.641147 0.834206 0.957519 1.000000 0.957300 0.832323 0.635128 0.382207 0.095165 0.201071 0.480381 0.717782 0.891667 0.985838 0.991079 0.906142 0.738026 0.501496 0.217867 0.086842 0.384265 0.646321 0.847884 0.969231 0.998061 0.930816 0.773208 0.539840 0.252951 0.059638 0.367163 0.638943 0.847455 0.971173
1.000000 1.000000 1.000000 1.000000 1.000000 1.000000 1.000000 1.000000 1.000000 1.000000 1.000000 1.000000 1.000000 1.000000 1.000000 1.000000 1.000000 1.000000 1.000000 1.000000 1.000000 1.000000 1.000000 1.000000 1.000000 1.000000 1.000000 1.000000 1.000000 1.000000 1.000000 1.000000 1.000000 1.000000 1.000000 1.000000 1.000000 1.000000 1.000000 1.000000 1.000000 1.000000 1.000000 1.000000 1.000000 1.000000 1.000000 1.000000 1.000000 1.000000 1.000000 1.000000 0.748439 0.748439 0.748439 0.748439 0.748439 0.748439 0.748439 0.748109 0.748109 0.748109 0.748109 0.748109 0.748109 0.748109 0.748109 0.748109 0.748109 0.748109 0.748109 0.748109 0.748109 0.748109 0.748109 0.748109 0.748109 0.748109 0.748109 0.748109 0.748109 0.748109 0.748109 0.748109 0.748109 0.748109 0.748109 0.748109 0.748109 0.748109 0.748109 0.748109 0.748109 0.748109 0.748109 0.748109 0.748109 0.748109 0.748109 0.748109 0.748109 0.748109 0.748109 0.899260 0.900294 0.902983 0.895095 0.888302 0.887132 0.882450 0.879615 0.881471 0.880972 0.882040 0.883613 0.887463 0.894897 0.904452 0.907572 0.914992 0.918963 0.918910 0.923565 0.923526 0.928382 0.925233 0.922144 0.912460 0.915943 0.914780 0.912976 0.910983 0.904265 0.915622 0.913511 0.910373 0.901043 0.895605 0.893994 0.894667 0.892480 0.893547 0.893702 0.892916 0.890793 0.891491 0.886465 0.885468 0.870862 0.869001 0.865043 0.862186 0.859631 0.856810 0.854806 0.845676 0.844229 0.840633 0.833581 0.833454 0.833400 0.834087 0.834977 0.835905 0.838650 0.832448 0.827720 0.826793 0.821962 0.815695 0.806893 0.806415 0.809861 0.818105 0.825365 0.823156 0.820891 0.811275 0.798815 0.796620 0.801398 0.777959 0.775940 0.782029 0.783018 0.778279 0.772262 0.769775 0.766960 0.763968 0.758153 0.766859 0.765132 0.758511 0.755301 0.755433 0.756480 0.765593 0.766883 0.757044 0.743527 0.742126 0.747118 0.752710 0.758371 0.750123 0.750834 0.754785 0.759863 0.764844 0.749073 0.743145 0.734221 0.727709 0.737187 0.758107 0.749399 0.755771 0.760449 0.754368 0.754329 0.747085 0.757405 0.758493 0.766396 0.767050 0.760945 0.714942 0.691188 0.651640 0.652170 0.654789 0.611318 0.611136 0.611649 0.611296 0.556368 0.516854 0.496703 0.495084 0.500697 0.504711 0.500734 0.487518 0.484384 0.486721 0.465363 0.452956 0.452070 0.456603 0.443790 0.454016 0.453964 0.449277 0.407460 0.416916 0.434918 0.445320 0.430514 0.417833 0.422751 0.412484 0.418617 0.413032 0.405148 0.360692 0.378693 0.374067 0.392773 0.354257 0.334099 0.307097 0.342370 0.330726 0.290641 0.317031 0.275065 0.272816 0.276892 0.263230 0.237927 0.257700 0.276476 0.237497 0.242696 0.240356 0.278794 0.269622 0.284779 0.304981 0.291224 0.283690 0.300637 0.285555 0.273818 0.252099 0.247781 0.244031 0.243625 0.293627 0.282779 0.282893 0.295980 0.328462 0.303825 0.325288 0.328826 0.325992 0.336966 0.294919 0.237755 0.241935 0.233178 0.238093 0.209018 0.168021 0.148818 0.155826 0.135776 0.127714 0.094981 0.092513 0.097602 0.075515 0.053835 0.047906 0.057640 0.076567 0.101637 0.076741 0.058038 -0.036843 -0.011036 -0.051906 -0.027982 -0.027982 -0.027982 -0.027982 -0.027982 -0.027982 -0.027982 -0.027982 -0.027982 -0.025326 -0.025326 -0.025326 -0.025326 -0.025326 -0.025326 -0.025326 -0.025326 -0.025326 -0.025326 -0.025326 -0.025326 -0.025326 -0.025326 -0.025326 -0.025326 -0.025326 -0.025326 -0.025326 -0.025326
0.000000 0.000000 0.000000 0.000000 0.000000 0.000000 0.000000 0.000000 0.000000 0.000000 0.000000 0.000000 0.000000 0.000000 0.000000 0.000000 0.000000 0.000000 0.000000 0.000000 0.000000 0.000000 0.000000 0.000000 0.000000 0.000000 0.000000 0.000000 0.000000 0.000000 0.000000 0.000000 0.000000 0.000000 0.000000 0.000000 0.000000 0.000000 0.000000 0.000000 0.000000 0.000000 0.000000 0.000000 0.000000 0.000000 0.000000 0.000000 0.000000 0.000000 0.000000 0.000000 0.173422 0.173422 0.173422 0.173422 0.173422 0.173422 0.173422 0.191565 0.191565 0.191565 0.191565 0.191565 0.191565 0.191565 0.191565 0.191565 0.191565 0.191565 0.191565 0.191565 0.191565 0.191565 0.191565 0.191565 0.191565 0.191565 0.191565 0.191565 0.191565 0.191565 0.191565 0.191565 0.191565 0.191565 0.191565 0.191565 0.191565 0.191565 0.191565 0.191565 0.191565 0.191565 0.191565 0.191565 0.191565 0.191565 0.191565 0.191565 0.191565 0.191565 0.191565 0.222222 0.222222 0.222222 0.222222 0.222222 0.222222 0.222222 0.222222 0.222222 0.222222 0.222222 0.222222 0.222222 0.222222 0.222222 0.222222 0.222222 0.222222 0.222222 0.222222 0.222222 0.222222 0.222222 0.222222 0.222222 0.222222 0.222222 0.222222 0.222222 0.222222 0.234082 0.234082 0.234082 0.234082 0.234082 0.234082 0.234082 0.234082 0.234082 0.234082 0.234082 0.234082 0.234082 0.234082 0.234082 0.234082 0.234082 0.234082 0.234082 0.234082 0.234082 0.234082 0.234082 0.234082 0.234082 0.244339 0.244339 0.244339 0.244339 0.244339 0.244339 0.244339 0.244339 0.244339 0.244339 0.244339 0.244339 0.244339 0.244339 0.244339 0.244339 0.244339 0.244339 0.244339 0.244339 0.244339 0.248069 0.248069 0.248069 0.248069 0.248069 0.248069 0.248069 0.248069 0.248069 0.248069 0.248069 0.248069 0.248069 0.248069 0.248069 0.248069 0.248069 0.248069 0.248069 0.256074 0.256074 0.256074 0.256074 0.256074 0.256074 0.256074 0.256074 0.256074 0.256074 0.256074 0.256074 0.256074 0.256074 0.256074 0.256074 0.256074 0.256074 0.256074 0.256074 0.256074 0.256074 0.256074 0.256074 0.256074 0.256074 0.256074 0.256074 0.256074 0.256074 0.256074 0.256074 0.256074 0.256074 0.256074 0.256074 0.256074 0.256074 0.256074 0.256074 0.256074 0.256074 0.256074 0.256074 0.256074 0.256074 0.256074 0.256074 0.256074 0.256074 0.256074 0.256074 0.256074 0.256074 0.256074 0.256074 0.256074 0.256074 0.256074 0.256074 0.256074 0.256074 0.251976 0.251976 0.251976 0.251976 0.251976 0.251976 0.251976 0.251976 0.251976 0.251976 0.251976 0.251976 0.251976 0.251976 0.264906 0.264906 0.264906 0.264906 0.264906 0.264906 0.264906 0.264906 0.264906 0.264906 0.264906 0.264906 0.248069 0.248069 0.248069 0.248069 0.248069 0.248069 0.248069 0.248069 0.248069 0.248069 0.248069 0.248069 0.248069 0.264906 0.264906 0.264906 0.264906 0.264906 0.264906 0.264906 0.264906 0.264906 0.264906 0.264906 0.248069 0.248069 0.248069 0.248069 0.248069 0.248069 0.248069 0.248069 0.248069 0.248069 0.248069 0.248069 0.251976 0.251976 0.251976 0.251976 0.251976 0.251976 0.251976 0.251976 0.251976 0.251976 0.251976 0.260378 0.260378 0.260378 0.260378 0.260378 0.260378 0.260378 0.260378 0.260378 0.260378 0.256074 0.256074 0.256074 0.256074 0.256074 0.256074 0.256074 0.256074 0.256074 0.256074 0.256074 0.256074 0.256074 0.256074 0.256074 0.256074 0.256074 0.256074 0.256074 0.256074
