# Output from CTFFind version 4.1.9, run on 2019-11-02 17:45:48
# Input file: stack6_bm3d_averaged_1_1.0_0_1000_half.mrc ; Number of micrographs: 1
# Pixel size: 3.000 Angstroms ; acceleration voltage: 300.0 keV ; spherical aberration: 0.00 mm ; amplitude contrast: 0.07
# Box size: 512 pixels ; min. res.: 30.0 Angstroms ; max. res.: 5.0 Angstroms ; min. def.: 5000.0 um; max. def. 50000.0 um; num. frames averaged: 1
# 6 lines per micrograph: #1 - spatial frequency (1/Angstroms); #2 - 1D rotational average of spectrum (assuming no astigmatism); #3 - 1D rotational average of spectrum; #4 - CTF fit; #5 - cross-correlation between spectrum and CTF fit; #6 - 2sigma of expected cross correlation of noise
0.000000 0.000651 0.001302 0.001953 0.002604 0.003255 0.003906 0.004557 0.005208 0.005859 0.006510 0.007161 0.007812 0.008464 0.009115 0.009766 0.010417 0.011068 0.011719 0.012370 0.013021 0.013672 0.014323 0.014974 0.015625 0.016276 0.016927 0.017578 0.018229 0.018880 0.019531 0.020182 0.020833 0.021484 0.022135 0.022786 0.023438 0.024089 0.024740 0.025391 0.026042 0.026693 0.027344 0.027995 0.028646 0.029297 0.029948 0.030599 0.031250 0.031901 0.032552 0.033203 0.033854 0.034505 0.035156 0.035807 0.036458 0.037109 0.037760 0.038411 0.039062 0.039714 0.040365 0.041016 0.041667 0.042318 0.042969 0.043620 0.044271 0.044922 0.045573 0.046224 0.046875 0.047526 0.048177 0.048828 0.049479 0.050130 0.050781 0.051432 0.052083 0.052734 0.053385 0.054036 0.054688 0.055339 0.055990 0.056641 0.057292 0.057943 0.058594 0.059245 0.059896 0.060547 0.061198 0.061849 0.062500 0.063151 0.063802 0.064453 0.065104 0.065755 0.066406 0.067057 0.067708 0.068359 0.069010 0.069661 0.070312 0.070964 0.071615 0.072266 0.072917 0.073568 0.074219 0.074870 0.075521 0.076172 0.076823 0.077474 0.078125 0.078776 0.079427 0.080078 0.080729 0.081380 0.082031 0.082682 0.083333 0.083984 0.084635 0.085286 0.085938 0.086589 0.087240 0.087891 0.088542 0.089193 0.089844 0.090495 0.091146 0.091797 0.092448 0.093099 0.093750 0.094401 0.095052 0.095703 0.096354 0.097005 0.097656 0.098307 0.098958 0.099609 0.100260 0.100911 0.101562 0.102214 0.102865 0.103516 0.104167 0.104818 0.105469 0.106120 0.106771 0.107422 0.108073 0.108724 0.109375 0.110026 0.110677 0.111328 0.111979 0.112630 0.113281 0.113932 0.114583 0.115234 0.115885 0.116536 0.117188 0.117839 0.118490 0.119141 0.119792 0.120443 0.121094 0.121745 0.122396 0.123047 0.123698 0.124349 0.125000 0.125651 0.126302 0.126953 0.127604 0.128255 0.128906 0.129557 0.130208 0.130859 0.131510 0.132161 0.132812 0.133464 0.134115 0.134766 0.135417 0.136068 0.136719 0.137370 0.138021 0.138672 0.139323 0.139974 0.140625 0.141276 0.141927 0.142578 0.143229 0.143880 0.144531 0.145182 0.145833 0.146484 0.147135 0.147786 0.148438 0.149089 0.149740 0.150391 0.151042 0.151693 0.152344 0.152995 0.153646 0.154297 0.154948 0.155599 0.156250 0.156901 0.157552 0.158203 0.158854 0.159505 0.160156 0.160807 0.161458 0.162109 0.162760 0.163411 0.164062 0.164714 0.165365 0.166016 0.166667 0.167318 0.167969 0.168620 0.169271 0.169922 0.170573 0.171224 0.171875 0.172526 0.173177 0.173828 0.174479 0.175130 0.175781 0.176432 0.177083 0.177734 0.178385 0.179036 0.179688 0.180339 0.180990 0.181641 0.182292 0.182943 0.183594 0.184245 0.184896 0.185547 0.186198 0.186849 0.187500 0.188151 0.188802 0.189453 0.190104 0.190755 0.191406 0.192057 0.192708 0.193359 0.194010 0.194661 0.195312 0.195964 0.196615 0.197266 0.197917 0.198568 0.199219 0.199870 0.200521 0.201172 0.201823 0.202474 0.203125 0.203776 0.204427 0.205078 0.205729 0.206380 0.207031 0.207682 0.208333 0.208984 0.209635 0.210286 0.210938 0.211589 0.212240 0.212891 0.213542 0.214193 0.214844 0.215495 0.216146 0.216797 0.217448 0.218099 0.218750 0.219401 0.220052 0.220703 0.221354 0.222005 0.222656 0.223307 0.223958 0.224609 0.225260 0.225911 0.226562 0.227214 0.227865 0.228516 0.229167 0.229818 0.230469 0.231120 0.231771 0.232422 0.233073 0.233724 0.234375 0.235026 0.235677
       0.31118        0.31118        0.31118        0.31118        0.31118        0.31118        0.31118        0.31118        0.31118        0.31118        0.31118        0.31118        0.31118        0.31118        0.31118        0.31118        0.31118        0.31118        0.31118        0.31118        0.31118        0.31118        0.31118        0.31118        0.31118        0.31118        0.31118        0.31118        0.31118        0.31118        0.31118        0.31118        0.31118        0.31118        0.31118        0.31118        0.31118        0.31118        0.31118        0.31118        0.31118        0.31118        0.31118        0.31118        0.31118        0.31118        0.31118        0.31118        0.31118        0.31118        0.31118        0.63427        0.81660        0.41640        0.31157        0.18820       -0.10622        0.11205       -0.00209        0.03335        0.11732        0.33624        0.42378        0.40413        0.22510       -0.01234        0.04775        0.07129       -0.17012       -0.18024       -0.08642       -0.10868       -0.29349       -0.18878       -0.30215       -0.25759       -0.28601       -0.40359       -0.47498       -0.47757       -0.42181       -0.33935       -0.43861       -0.36743       -0.41037       -0.35011       -0.27503       -0.20014       -0.19404       -0.13596       -0.09204        0.03928        0.08333        0.25133        0.28149        0.36995        0.40334        0.51876        0.59052        0.60902        0.74057        0.70014        0.74150        0.65154        0.66507        0.69586        0.63311        0.61507        0.60834        0.43514        0.39718        0.35693        0.32454        0.22307        0.13109        0.06041        0.05670        0.00109       -0.07958       -0.02944       -0.03151       -0.07058        0.06365        0.16341        0.25451        0.32041        0.33498        0.42924        0.54686        0.59421        0.54280        0.67245        0.56576        0.54112        0.59858        0.63923        0.53194        0.45989        0.40437        0.37736        0.24904        0.21154        0.13196        0.11604        0.05419        0.05581        0.10682        0.16649        0.14684        0.18136        0.22010        0.23823        0.33014        0.45518        0.49103        0.49708        0.52024        0.57965        0.57218        0.52159        0.42339        0.38443        0.36615        0.26966        0.24589        0.21345        0.20634        0.20068        0.18025        0.15978        0.12636        0.19065        0.24715        0.34562        0.38322        0.40736        0.46357        0.53553        0.47532        0.48532        0.42488        0.40255        0.38261        0.36278        0.28859        0.25661        0.19815        0.23339        0.21588        0.19199        0.21858        0.22494        0.24070        0.30098        0.40044        0.39979        0.37421        0.39033        0.45466        0.48329        0.42890        0.35307        0.32393        0.27592        0.26179        0.24942        0.21451        0.28251        0.29246        0.29536        0.31488        0.31025        0.34692        0.37528        0.37182        0.37203        0.35602        0.31836        0.33268        0.31894        0.29630        0.28399        0.27160        0.21612        0.27110        0.27335        0.30118        0.32007        0.34353        0.37665        0.33828        0.31869        0.36171        0.36684        0.26441        0.29400        0.30752        0.24387        0.20845        0.26080        0.27459        0.27708        0.29964        0.30607        0.33477        0.33407        0.35963        0.32521        0.32141        0.30862        0.29446        0.27200        0.24714        0.25443        0.25821        0.27844        0.30031        0.29641        0.29829        0.31481        0.32852        0.26505        0.30369        0.26783        0.25905        0.27465        0.26300        0.26139        0.26470        0.31229        0.28485        0.31480        0.28806        0.27389        0.30972        0.31010        0.33149        0.31466        0.29143        0.25109        0.25970        0.26730        0.26054        0.31230        0.31764        0.33555        0.32194        0.31177        0.25442        0.28164        0.21083        0.20245        0.25107        0.26045        0.25688        0.28583        0.31363        0.29850        0.35413        0.30523        0.25862        0.23158        0.23608        0.29220        0.31221        0.30412        0.26985        0.28038        0.26038        0.31752        0.28082        0.25314        0.26540        0.25312        0.28762        0.25075        0.28591        0.32936        0.29135        0.21454        0.23597        0.28257        0.32019        0.26163        0.26214        0.23885        0.28303        0.29164        0.38115        0.28826        0.26929        0.25783        0.25332        0.21785        0.18358        0.24764        0.21787        0.20384        0.18073        0.19329        0.24066        0.22072        0.23741        0.19741        0.25553        0.22803        0.21079        0.18008        0.15676        0.19251        0.24273        0.14053        0.06613        0.21548        0.19267        0.14378        0.24059        0.16020        0.23110        0.20061       -0.06079       -0.51008       -1.01044
2.862080 2.833889 2.805842 2.777941 2.750185 2.722575 2.695109 2.667789 2.640614 2.613584 2.586700 2.559960 2.533366 2.506917 2.480613 2.454455 2.428442 2.402573 2.376850 2.351273 2.325840 2.300553 2.275411 2.250414 2.225562 2.200856 2.176294 2.151878 2.127607 2.103482 2.079501 2.055666 2.031976 2.008431 1.985032 1.961777 1.938668 1.915704 1.892885 1.870212 1.847683 1.825300 1.803062 1.780969 1.759022 1.737220 1.715562 1.694050 1.672684 1.651462 1.630386 1.926524 2.279281 1.705458 1.747069 1.386798 0.945379 1.203892 1.028550 1.078841 1.034412 1.497646 1.523372 1.546139 1.284786 0.947040 0.827959 1.015640 0.717130 0.491467 0.592433 0.681206 0.423593 0.491579 0.329177 0.370746 0.249355 0.160974 -0.034503 0.005221 0.027377 0.082443 0.040648 0.078199 -0.041057 0.030169 0.112775 0.226836 0.286366 0.210821 0.324323 0.556528 0.451973 0.731344 0.796956 0.880679 0.911529 1.124098 1.147340 1.179863 1.330054 1.239412 1.381593 1.193866 1.115179 1.318728 1.131283 1.055528 1.130260 0.889578 0.740462 0.679952 0.674863 0.462548 0.394944 0.261629 0.226447 0.095334 -0.006884 0.090998 0.026707 -0.063773 0.113604 0.255666 0.307566 0.465457 0.485970 0.554721 0.723125 0.826455 0.662833 0.963513 0.807355 0.657453 0.769148 0.799739 0.715033 0.640373 0.445415 0.502349 0.285442 0.187170 0.141263 0.007194 -0.018813 -0.111461 -0.016859 0.025546 0.088499 -0.047001 0.254843 0.092290 0.209948 0.375162 0.436487 0.531070 0.434282 0.561004 0.663939 0.507020 0.388824 0.336069 0.322763 0.147168 0.138641 0.009740 0.095112 0.023269 0.001006 -0.027309 -0.119805 -0.009636 0.019689 0.106162 0.296276 0.204588 0.356258 0.373536 0.427043 0.416413 0.398228 0.333141 0.229814 0.305654 0.165803 0.159524 0.004516 0.048229 0.064997 -0.023453 -0.006894 0.019474 0.061245 0.074149 0.219333 0.306190 0.245118 0.209737 0.377449 0.404974 0.354512 0.245665 0.174087 0.146341 0.082783 0.073253 0.030698 0.020914 0.134160 0.055396 0.186395 0.091558 0.141284 0.232308 0.217469 0.236464 0.199588 0.200557 0.117511 0.166238 0.125448 0.097665 0.114326 -0.002199 0.032905 0.088776 0.049489 0.151165 0.119940 0.212912 0.205889 0.134790 0.139051 0.224501 0.118940 0.070893 0.089068 0.065731 -0.002369 -0.026738 0.052561 0.074747 0.037260 0.118780 0.112714 0.125134 0.138450 0.174510 0.121748 0.085618 0.105148 0.085658 0.024595 0.013308 0.037595 0.003682 0.075618 0.106784 0.068816 0.069017 0.124488 0.106703 0.018603 0.115120 0.024419 0.025972 0.058914 0.018840 0.016370 0.063082 0.088880 0.022470 0.105633 0.065034 0.025775 0.113803 0.072936 0.092978 0.086828 0.021120 -0.012617 -0.006623 0.037329 -0.000642 0.071992 0.095463 0.089959 0.059658 0.138880 -0.022535 0.035721 -0.097431 -0.024663 -0.029728 0.005825 0.016639 0.026304 0.089570 0.061804 0.115363 0.000673 -0.030358 -0.073961 -0.082052 0.069555 0.041628 0.043809 -0.019487 -0.005922 -0.034063 0.057070 0.005854 -0.075749 -0.016602 -0.083765 0.020166 -0.047451 0.016624 0.063805 -0.015794 -0.084740 -0.046350 0.075442 0.040906 -0.012110 0.001160 -0.060340 0.088871 0.073563 0.179007 0.037569 0.011393 0.017010 0.060390 -0.051984 -0.037329 0.053276 0.000112 -0.033003 -0.047189 -0.040628 0.090843 -0.059358 0.096303 -0.016238 0.121815 -0.008497 0.061053 -0.083756 -0.042037 -0.052839 0.113021 -0.042190 -0.245663 0.301432 0.269867 0.203756 0.404383 0.206935 0.301688 0.318556 -0.083276 -1.415012
0.072396 0.072834 0.074149 0.076339 0.079405 0.083346 0.088161 0.093849 0.100407 0.107835 0.116130 0.125289 0.135307 0.146181 0.157905 0.170473 0.183877 0.198108 0.213155 0.229008 0.245653 0.263072 0.281250 0.300166 0.319797 0.340118 0.361101 0.382715 0.404925 0.427693 0.450977 0.474731 0.498907 0.523449 0.548299 0.573394 0.598667 0.624043 0.649447 0.674794 0.699997 0.724962 0.749591 0.773780 0.797421 0.820399 0.842598 0.863892 0.884155 0.903256 0.921059 0.937427 0.952218 0.965289 0.976496 0.985694 0.992738 0.997485 0.999792 0.999520 0.996536 0.990709 0.981917 0.970046 0.954989 0.936653 0.914956 0.889827 0.861216 0.829084 0.793416 0.754213 0.711500 0.665323 0.615756 0.562895 0.506865 0.447821 0.385943 0.321445 0.254568 0.185586 0.114803 0.042554 0.030797 0.104856 0.179202 0.253387 0.326939 0.399366 0.470154 0.538777 0.604695 0.667361 0.726225 0.780740 0.830364 0.874572 0.912855 0.944730 0.969749 0.987498 0.997613 0.999780 0.993746 0.979321 0.956389 0.924911 0.884930 0.836579 0.780080 0.715753 0.644011 0.565369 0.480436 0.389920 0.294621 0.195428 0.093315 0.010671 0.115414 0.219743 0.322443 0.422268 0.517957 0.608251 0.691908 0.767722 0.834547 0.891306 0.937022 0.970831 0.991999 0.999948 0.994266 0.974722 0.941283 0.894125 0.833636 0.760422 0.675312 0.579353 0.473803 0.360118 0.239942 0.115083 0.012507 0.140763 0.267537 0.390632 0.507842 0.616994 0.715986 0.802833 0.875711 0.933000 0.973323 0.995586 0.999015 0.983181 0.948029 0.893893 0.821508 0.732010 0.626930 0.508176 0.378010 0.239012 0.094032 0.053858 0.201430 0.345367 0.482338 0.609073 0.722451 0.819574 0.897855 0.955088 0.989524 0.999928 0.985638 0.946596 0.883383 0.797220 0.689964 0.564086 0.422619 0.269104 0.107504 0.057884 0.222545 0.381862 0.531249 0.666287 0.782854 0.877268 0.946406 0.987823 0.999850 0.981675 0.933398 0.856060 0.751641 0.623034 0.473981 0.308979 0.133158 0.047873 0.228187 0.401740 0.562574 0.705023 0.823920 0.914799 0.974077 0.999211 0.988825 0.942799 0.862312 0.749847 0.609130 0.445038 0.263446 0.071030 0.124966 0.316989 0.497481 0.659167 0.795363 0.900267 0.969218 0.998932 0.987672 0.935377 0.843708 0.716036 0.557343 0.374054 0.173806 0.034862 0.242856 0.440924 0.620065 0.771950 0.889321 0.966363 0.999015 0.985210 0.925035 0.820782 0.676906 0.499867 0.297869 0.080510 0.141667 0.357664 0.556581 0.728167 0.863364 0.954815 0.997282 0.987989 0.926830 0.816447 0.662163 0.471768 0.255156 0.023842 0.209632 0.432371 0.631839 0.796571 0.916866 0.985381 0.997613 0.952239 0.851277 0.700048 0.506941 0.283007 0.041325 0.203691 0.437190 0.644748 0.813298 0.931959 0.992790 0.991356 0.927100 0.803473 0.627808 0.410936 0.166567 0.089541 0.340595 0.569844 0.761720 0.902908 0.983319 0.996851 0.941905 0.821605 0.643683 0.420054 0.166058 0.100554 0.360830 0.595965 0.788680 0.924502 0.992913 0.988211 0.910043 0.763559 0.559136 0.311720 0.039774 0.236065 0.494527 0.715364 0.880956 0.977758 0.997467 0.937801 0.802809 0.602685 0.353078 0.073907 0.212166 0.481560 0.711727 0.883064 0.980626 0.995492 0.925658 0.776352 0.559734 0.293983 0.001845 0.291298 0.559591 0.779006 0.929533 0.997059 0.974769 0.863912 0.673848 0.421361 0.129247 0.175688 0.465057 0.711528 0.891445 0.987140 0.988761 0.895363 0.715178 0.465000 0.168699 0.144980 0.445178 0.701949 0.889280
1.000000 1.000000 1.000000 1.000000 1.000000 1.000000 1.000000 1.000000 1.000000 1.000000 1.000000 1.000000 1.000000 1.000000 1.000000 1.000000 1.000000 1.000000 1.000000 1.000000 1.000000 1.000000 1.000000 1.000000 1.000000 1.000000 1.000000 1.000000 1.000000 1.000000 1.000000 1.000000 1.000000 1.000000 1.000000 1.000000 1.000000 1.000000 1.000000 1.000000 1.000000 1.000000 1.000000 1.000000 1.000000 1.000000 1.000000 1.000000 1.000000 1.000000 1.000000 1.000000 0.834669 0.834669 0.834669 0.834669 0.834669 0.834669 0.834669 0.816989 0.816989 0.816989 0.816989 0.816989 0.816989 0.816989 0.816989 0.816989 0.816989 0.816989 0.816989 0.816989 0.816989 0.816989 0.816989 0.816989 0.816989 0.816989 0.816989 0.816989 0.816989 0.816989 0.816989 0.816989 0.816989 0.816989 0.816989 0.816989 0.816989 0.816989 0.816989 0.816989 0.816989 0.816989 0.816989 0.816989 0.816989 0.816989 0.816989 0.816989 0.816989 0.816989 0.816989 0.954858 0.955459 0.952511 0.951408 0.949732 0.946405 0.942114 0.941682 0.943038 0.943238 0.943846 0.945179 0.946149 0.947749 0.948733 0.949537 0.950340 0.958467 0.962187 0.961917 0.961621 0.952422 0.959244 0.957260 0.954984 0.955762 0.956054 0.956757 0.956639 0.956477 0.955976 0.954624 0.955345 0.955180 0.954437 0.953387 0.951249 0.951204 0.950758 0.950897 0.951871 0.952781 0.953433 0.953960 0.953943 0.954121 0.954110 0.954014 0.949163 0.949185 0.942474 0.943056 0.944151 0.943785 0.942719 0.941258 0.941321 0.941205 0.941140 0.940974 0.941190 0.922311 0.921798 0.921822 0.922174 0.915187 0.904321 0.896979 0.890804 0.891749 0.895979 0.900867 0.901384 0.898218 0.897319 0.881055 0.877973 0.864349 0.861124 0.850502 0.860903 0.861974 0.863310 0.856901 0.856199 0.854768 0.852684 0.842874 0.847305 0.847806 0.843990 0.840199 0.838310 0.836235 0.838460 0.847145 0.844380 0.842712 0.844759 0.833835 0.824616 0.823454 0.825169 0.833147 0.845188 0.844242 0.843199 0.836696 0.833214 0.827124 0.821549 0.821035 0.822725 0.820655 0.824292 0.823638 0.831711 0.821733 0.816569 0.821621 0.831966 0.836758 0.838630 0.840889 0.838837 0.839598 0.822503 0.823267 0.824739 0.775015 0.774651 0.762854 0.761985 0.750245 0.749613 0.745732 0.742162 0.733131 0.713856 0.726019 0.728469 0.704516 0.712512 0.706989 0.695697 0.674978 0.681287 0.695201 0.704199 0.704194 0.704525 0.694056 0.693573 0.702581 0.701808 0.707660 0.699982 0.696372 0.689845 0.691492 0.682719 0.678243 0.676247 0.675832 0.676547 0.672935 0.656230 0.665443 0.656666 0.646718 0.636505 0.599491 0.569916 0.556181 0.547583 0.529150 0.504974 0.519707 0.525673 0.506223 0.497227 0.477551 0.442161 0.431898 0.430531 0.412148 0.399735 0.379805 0.334436 0.344087 0.340369 0.343929 0.327654 0.328883 0.314083 0.263418 0.255825 0.218610 0.235511 0.257488 0.251452 0.230770 0.223173 0.238777 0.235329 0.244104 0.242335 0.259183 0.214316 0.157407 0.177849 0.170985 0.179675 0.162525 0.134563 0.161749 0.157185 0.169647 0.173884 0.125639 0.096301 0.075669 0.059800 0.065746 0.088564 0.102190 0.092104 0.075295 -0.018910 0.014149 0.039642 0.039642 0.039642 0.039642 0.039642 0.039642 0.039642 0.039642 0.039642 0.039642 0.039642 -0.020272 -0.020272 -0.020272 -0.020272 -0.020272 -0.020272 -0.020272 -0.020272 -0.020272 -0.020272 -0.020272 -0.020272 -0.020272 -0.020272 -0.020272 -0.020272 -0.020272 -0.020272 -0.020272
0.000000 0.000000 0.000000 0.000000 0.000000 0.000000 0.000000 0.000000 0.000000 0.000000 0.000000 0.000000 0.000000 0.000000 0.000000 0.000000 0.000000 0.000000 0.000000 0.000000 0.000000 0.000000 0.000000 0.000000 0.000000 0.000000 0.000000 0.000000 0.000000 0.000000 0.000000 0.000000 0.000000 0.000000 0.000000 0.000000 0.000000 0.000000 0.000000 0.000000 0.000000 0.000000 0.000000 0.000000 0.000000 0.000000 0.000000 0.000000 0.000000 0.000000 0.000000 0.000000 0.173422 0.173422 0.173422 0.173422 0.173422 0.173422 0.173422 0.191565 0.191565 0.191565 0.191565 0.191565 0.191565 0.191565 0.191565 0.191565 0.191565 0.191565 0.191565 0.191565 0.191565 0.191565 0.191565 0.191565 0.191565 0.191565 0.191565 0.191565 0.191565 0.191565 0.191565 0.191565 0.191565 0.191565 0.191565 0.191565 0.191565 0.191565 0.191565 0.191565 0.191565 0.191565 0.191565 0.191565 0.191565 0.191565 0.191565 0.191565 0.191565 0.191565 0.191565 0.219529 0.219529 0.219529 0.219529 0.219529 0.219529 0.219529 0.219529 0.219529 0.219529 0.219529 0.219529 0.219529 0.219529 0.219529 0.219529 0.219529 0.219529 0.219529 0.219529 0.219529 0.219529 0.219529 0.219529 0.219529 0.219529 0.219529 0.219529 0.219529 0.219529 0.219529 0.237356 0.237356 0.237356 0.237356 0.237356 0.237356 0.237356 0.237356 0.237356 0.237356 0.237356 0.237356 0.237356 0.237356 0.237356 0.237356 0.237356 0.237356 0.237356 0.237356 0.237356 0.237356 0.237356 0.237356 0.244339 0.244339 0.244339 0.244339 0.244339 0.244339 0.244339 0.244339 0.244339 0.244339 0.244339 0.244339 0.244339 0.244339 0.244339 0.244339 0.244339 0.244339 0.244339 0.244339 0.244339 0.248069 0.248069 0.248069 0.248069 0.248069 0.248069 0.248069 0.248069 0.248069 0.248069 0.248069 0.248069 0.248069 0.248069 0.248069 0.248069 0.248069 0.248069 0.248069 0.248069 0.248069 0.248069 0.248069 0.248069 0.248069 0.248069 0.248069 0.248069 0.248069 0.248069 0.248069 0.248069 0.248069 0.248069 0.248069 0.248069 0.248069 0.256074 0.256074 0.256074 0.256074 0.256074 0.256074 0.256074 0.256074 0.256074 0.256074 0.256074 0.256074 0.256074 0.256074 0.256074 0.256074 0.256074 0.256074 0.256074 0.256074 0.256074 0.256074 0.256074 0.256074 0.256074 0.256074 0.256074 0.256074 0.256074 0.256074 0.256074 0.256074 0.256074 0.256074 0.256074 0.256074 0.256074 0.256074 0.256074 0.256074 0.256074 0.256074 0.256074 0.256074 0.256074 0.260378 0.260378 0.260378 0.260378 0.260378 0.260378 0.260378 0.260378 0.260378 0.260378 0.260378 0.260378 0.260378 0.256074 0.256074 0.256074 0.256074 0.256074 0.256074 0.256074 0.256074 0.256074 0.256074 0.256074 0.256074 0.256074 0.260378 0.260378 0.260378 0.260378 0.260378 0.260378 0.260378 0.260378 0.260378 0.260378 0.260378 0.260378 0.251976 0.251976 0.251976 0.251976 0.251976 0.251976 0.251976 0.251976 0.251976 0.251976 0.251976 0.251976 0.256074 0.256074 0.256074 0.256074 0.256074 0.256074 0.256074 0.256074 0.256074 0.256074 0.256074 0.251976 0.251976 0.251976 0.251976 0.251976 0.251976 0.251976 0.251976 0.251976 0.251976 0.251976 0.248069 0.248069 0.248069 0.248069 0.248069 0.248069 0.248069 0.248069 0.248069 0.248069 0.248069 0.256074 0.256074 0.256074 0.256074 0.256074 0.256074 0.256074 0.256074 0.256074 0.256074 0.256074 0.256074 0.256074 0.256074 0.256074 0.256074 0.256074 0.256074 0.256074
