# Output from CTFFind version 4.1.9, run on 2019-11-03 20:10:52
# Input file: stack16_bm3d_averaged_1_7.5_0_3000_half.mrc ; Number of micrographs: 1
# Pixel size: 3.000 Angstroms ; acceleration voltage: 300.0 keV ; spherical aberration: 0.00 mm ; amplitude contrast: 0.07
# Box size: 512 pixels ; min. res.: 30.0 Angstroms ; max. res.: 5.0 Angstroms ; min. def.: 5000.0 um; max. def. 50000.0 um; num. frames averaged: 1
# 6 lines per micrograph: #1 - spatial frequency (1/Angstroms); #2 - 1D rotational average of spectrum (assuming no astigmatism); #3 - 1D rotational average of spectrum; #4 - CTF fit; #5 - cross-correlation between spectrum and CTF fit; #6 - 2sigma of expected cross correlation of noise
0.000000 0.000651 0.001302 0.001953 0.002604 0.003255 0.003906 0.004557 0.005208 0.005859 0.006510 0.007161 0.007812 0.008464 0.009115 0.009766 0.010417 0.011068 0.011719 0.012370 0.013021 0.013672 0.014323 0.014974 0.015625 0.016276 0.016927 0.017578 0.018229 0.018880 0.019531 0.020182 0.020833 0.021484 0.022135 0.022786 0.023438 0.024089 0.024740 0.025391 0.026042 0.026693 0.027344 0.027995 0.028646 0.029297 0.029948 0.030599 0.031250 0.031901 0.032552 0.033203 0.033854 0.034505 0.035156 0.035807 0.036458 0.037109 0.037760 0.038411 0.039062 0.039714 0.040365 0.041016 0.041667 0.042318 0.042969 0.043620 0.044271 0.044922 0.045573 0.046224 0.046875 0.047526 0.048177 0.048828 0.049479 0.050130 0.050781 0.051432 0.052083 0.052734 0.053385 0.054036 0.054688 0.055339 0.055990 0.056641 0.057292 0.057943 0.058594 0.059245 0.059896 0.060547 0.061198 0.061849 0.062500 0.063151 0.063802 0.064453 0.065104 0.065755 0.066406 0.067057 0.067708 0.068359 0.069010 0.069661 0.070312 0.070964 0.071615 0.072266 0.072917 0.073568 0.074219 0.074870 0.075521 0.076172 0.076823 0.077474 0.078125 0.078776 0.079427 0.080078 0.080729 0.081380 0.082031 0.082682 0.083333 0.083984 0.084635 0.085286 0.085938 0.086589 0.087240 0.087891 0.088542 0.089193 0.089844 0.090495 0.091146 0.091797 0.092448 0.093099 0.093750 0.094401 0.095052 0.095703 0.096354 0.097005 0.097656 0.098307 0.098958 0.099609 0.100260 0.100911 0.101562 0.102214 0.102865 0.103516 0.104167 0.104818 0.105469 0.106120 0.106771 0.107422 0.108073 0.108724 0.109375 0.110026 0.110677 0.111328 0.111979 0.112630 0.113281 0.113932 0.114583 0.115234 0.115885 0.116536 0.117188 0.117839 0.118490 0.119141 0.119792 0.120443 0.121094 0.121745 0.122396 0.123047 0.123698 0.124349 0.125000 0.125651 0.126302 0.126953 0.127604 0.128255 0.128906 0.129557 0.130208 0.130859 0.131510 0.132161 0.132812 0.133464 0.134115 0.134766 0.135417 0.136068 0.136719 0.137370 0.138021 0.138672 0.139323 0.139974 0.140625 0.141276 0.141927 0.142578 0.143229 0.143880 0.144531 0.145182 0.145833 0.146484 0.147135 0.147786 0.148438 0.149089 0.149740 0.150391 0.151042 0.151693 0.152344 0.152995 0.153646 0.154297 0.154948 0.155599 0.156250 0.156901 0.157552 0.158203 0.158854 0.159505 0.160156 0.160807 0.161458 0.162109 0.162760 0.163411 0.164062 0.164714 0.165365 0.166016 0.166667 0.167318 0.167969 0.168620 0.169271 0.169922 0.170573 0.171224 0.171875 0.172526 0.173177 0.173828 0.174479 0.175130 0.175781 0.176432 0.177083 0.177734 0.178385 0.179036 0.179688 0.180339 0.180990 0.181641 0.182292 0.182943 0.183594 0.184245 0.184896 0.185547 0.186198 0.186849 0.187500 0.188151 0.188802 0.189453 0.190104 0.190755 0.191406 0.192057 0.192708 0.193359 0.194010 0.194661 0.195312 0.195964 0.196615 0.197266 0.197917 0.198568 0.199219 0.199870 0.200521 0.201172 0.201823 0.202474 0.203125 0.203776 0.204427 0.205078 0.205729 0.206380 0.207031 0.207682 0.208333 0.208984 0.209635 0.210286 0.210938 0.211589 0.212240 0.212891 0.213542 0.214193 0.214844 0.215495 0.216146 0.216797 0.217448 0.218099 0.218750 0.219401 0.220052 0.220703 0.221354 0.222005 0.222656 0.223307 0.223958 0.224609 0.225260 0.225911 0.226562 0.227214 0.227865 0.228516 0.229167 0.229818 0.230469 0.231120 0.231771 0.232422 0.233073 0.233724 0.234375 0.235026 0.235677
       0.36239        0.36239        0.36239        0.36239        0.36239        0.36239        0.36239        0.36239        0.36239        0.36239        0.36239        0.36239        0.36239        0.36239        0.36239        0.36239        0.36239        0.36239        0.36239        0.36239        0.36239        0.36239        0.36239        0.36239        0.36239        0.36239        0.36239        0.36239        0.36239        0.36239        0.36239        0.36239        0.36239        0.36239        0.36239        0.36239        0.36239        0.36239        0.36239        0.36239        0.36239        0.36239        0.36239        0.36239        0.36239        0.36239        0.36239        0.36239        0.36239        0.36239        0.36239        0.43906        0.56113        0.34767       -0.21512       -0.44272       -0.53207       -0.63614       -0.70288       -0.70616       -0.79755       -0.87549       -0.66421       -0.81554       -0.80282       -0.94085       -0.98159       -0.86288       -0.82242       -0.78378       -0.69068       -0.62293       -0.53200       -0.44014       -0.37707       -0.15001       -0.04937        0.05830        0.27642        0.26893        0.32893        0.37838        0.41281        0.53887        0.54710        0.58215        0.53891        0.48289        0.51313        0.54328        0.46794        0.34329        0.23182        0.19646        0.12294        0.03373        0.01687        0.00691        0.07695        0.04361        0.09485        0.06725        0.18554        0.21070        0.41779        0.46866        0.55305        0.66113        0.68664        0.71535        0.64693        0.61703        0.55835        0.45258        0.39907        0.29609        0.23284        0.23149        0.11972        0.13449        0.13995        0.10542        0.11095        0.31414        0.42991        0.53694        0.53982        0.56971        0.60969        0.59178        0.57348        0.59132        0.57550        0.47891        0.32349        0.28059        0.27524        0.17612        0.10865        0.18844        0.23540        0.30283        0.36402        0.43877        0.48427        0.53967        0.60835        0.55427        0.50945        0.51939        0.36729        0.30114        0.27835        0.19286        0.22700        0.25979        0.29596        0.29809        0.34637        0.44281        0.47586        0.50512        0.46134        0.45004        0.49855        0.40909        0.33840        0.30012        0.27836        0.24897        0.23686        0.25065        0.35293        0.46265        0.44695        0.49366        0.55975        0.46463        0.42486        0.36730        0.33462        0.29142        0.29600        0.28270        0.30316        0.37619        0.38249        0.45454        0.47934        0.45299        0.47632        0.39325        0.38928        0.36169        0.28911        0.26963        0.26970        0.35507        0.39092        0.37308        0.39813        0.44068        0.45534        0.39706        0.34758        0.33588        0.36588        0.33123        0.29907        0.30548        0.37363        0.38997        0.40909        0.39779        0.40677        0.43328        0.41977        0.33901        0.30236        0.32241        0.35203        0.40158        0.37537        0.41289        0.35975        0.38057        0.40271        0.35489        0.36505        0.33387        0.31714        0.34934        0.36082        0.34407        0.37854        0.39257        0.34107        0.36119        0.33693        0.32887        0.31643        0.33488        0.34173        0.33833        0.37905        0.38926        0.37490        0.32025        0.31571        0.30000        0.34479        0.33017        0.32744        0.38298        0.36706        0.35180        0.32989        0.31843        0.31460        0.29057        0.33370        0.34836        0.36360        0.38312        0.36788        0.33558        0.35359        0.37465        0.35236        0.36477        0.35846        0.32934        0.34472        0.30404        0.32934        0.31524        0.32758        0.29629        0.33518        0.36111        0.33800        0.36999        0.32895        0.34985        0.36793        0.35189        0.33320        0.34733        0.38254        0.35856        0.37067        0.34516        0.32370        0.33820        0.32761        0.34142        0.33989        0.37934        0.33698        0.33824        0.31007        0.31062        0.28566        0.29231        0.37376        0.32417        0.33417        0.30275        0.27548        0.28404        0.37326        0.31597        0.29797        0.33983        0.32885        0.30073        0.26535        0.30627        0.28188        0.31852        0.32095        0.35817        0.34793        0.33482        0.32938        0.27813        0.29778        0.29919        0.30089        0.31606        0.36749        0.31299        0.22542        0.31574        0.31898        0.34962        0.28504        0.30398        0.28232        0.33132        0.28796        0.27474        0.28737        0.25507        0.31700        0.33396        0.32079        0.27191        0.33757        0.28606        0.24733        0.24002        0.33091        0.25746        0.15769        0.11370        0.19923        0.35753        0.28822        0.19923        0.16763       -0.36052       -0.53155
3.270814 3.229027 3.187512 3.146269 3.105298 3.064599 3.024173 2.984019 2.944138 2.904528 2.865191 2.826126 2.787333 2.748813 2.710565 2.672589 2.634886 2.597454 2.560295 2.523408 2.486794 2.450452 2.414382 2.378584 2.343058 2.307805 2.272824 2.238116 2.203679 2.169515 2.135623 2.102004 2.068656 2.035581 2.002778 1.970248 1.937989 1.906003 1.874289 1.842848 1.811679 1.780782 1.750157 1.719805 1.689724 1.659916 1.630381 1.601117 1.572126 1.543407 1.514961 1.551693 1.616038 1.556684 0.844003 0.604774 0.466128 0.395615 0.298049 0.227377 0.196792 -0.046629 0.216441 0.083933 -0.023828 -0.099472 -0.234410 -0.139336 -0.045967 -0.093755 -0.067435 0.040982 0.043290 0.236933 0.111388 0.361148 0.465635 0.503853 0.778938 0.682063 0.701958 0.821199 0.795325 0.849335 0.923500 0.851769 0.883424 0.725618 0.781735 0.844829 0.693392 0.604927 0.431838 0.429285 0.321416 0.194830 0.188998 0.111885 0.207624 0.118937 0.205481 0.103901 0.213261 0.225647 0.429604 0.394501 0.561162 0.599185 0.614373 0.710033 0.596777 0.562530 0.454560 0.406402 0.277690 0.256401 0.084933 0.143859 -0.035184 0.033322 -0.030614 -0.048769 -0.067127 0.016084 0.251491 0.284458 0.345023 0.281352 0.368146 0.374606 0.395866 0.377432 0.348143 0.314802 0.111760 0.063559 0.057785 -0.028593 -0.154383 -0.065807 -0.065752 0.029845 0.066486 0.138875 0.199791 0.214534 0.307095 0.394876 0.267628 0.356793 0.217795 0.143350 0.061586 0.029841 -0.000626 0.054229 0.067535 0.088013 0.117109 0.165131 0.234405 0.297711 0.259892 0.201762 0.247331 0.221571 0.106730 0.047803 0.056371 0.021379 0.003868 -0.034582 0.028283 0.164693 0.197401 0.183034 0.290449 0.184275 0.193112 0.070168 0.062246 0.019371 -0.006345 -0.008682 -0.012406 0.047268 0.081341 0.103942 0.157087 0.137904 0.223505 0.141030 0.076596 0.098087 0.037803 -0.045543 -0.015166 0.030801 0.072786 0.070110 0.062749 0.148838 0.107326 0.156033 0.037198 0.043192 0.046234 0.043830 0.027721 -0.018876 0.040242 0.054731 0.092773 0.098237 0.083689 0.113788 0.121471 0.079562 0.009626 -0.013429 0.016457 0.073072 0.079668 0.085745 0.081399 0.054038 0.098482 0.065764 0.041196 0.071355 -0.008872 0.009834 0.068087 0.040576 0.044291 0.079140 0.082249 0.046833 0.067396 0.019954 0.018216 0.014610 0.056924 0.020881 0.037215 0.076779 0.079880 0.046460 -0.004502 -0.000921 -0.019239 0.047728 0.002292 0.012052 0.073749 0.042235 0.006475 0.014298 -0.018417 0.002525 -0.036457 0.010767 0.024199 0.050983 0.044727 0.033148 0.003842 0.007797 0.048010 0.012134 0.033351 0.010182 -0.010198 0.013273 -0.042592 -0.032400 -0.051229 -0.011822 -0.070783 0.008526 0.008073 -0.006021 -0.014868 -0.001186 -0.003479 0.028093 0.007005 -0.011711 0.015120 0.026592 0.027803 0.035742 0.000753 0.007153 0.011532 -0.009478 0.016258 -0.004958 0.097695 0.026419 0.018568 0.005135 -0.006973 -0.025482 0.005890 0.074519 0.001626 0.043867 -0.025990 -0.025050 -0.022543 0.089167 0.002796 -0.025818 0.073351 0.051970 0.001020 -0.002054 0.009019 0.007584 0.047233 0.039846 0.103455 0.043434 0.056628 0.044826 -0.007110 0.025189 0.003610 0.001362 0.024783 0.081409 -0.003263 -0.074655 0.033675 0.013368 0.079503 -0.040149 -0.007585 -0.016878 0.012655 -0.008513 -0.035950 -0.004721 -0.067954 0.050333 0.033413 0.047116 -0.103137 0.049865 0.035622 -0.007852 -0.056137 0.103279 0.025097 -0.053421 -0.137598 0.169589 0.358676 0.242355 0.132723 0.168004 -0.513035
0.072396 0.073047 0.074998 0.078249 0.082799 0.088647 0.095791 0.104226 0.113951 0.124958 0.137242 0.150795 0.165606 0.181662 0.198949 0.217447 0.237135 0.257986 0.279971 0.303052 0.327190 0.352337 0.378441 0.405439 0.433264 0.461839 0.491079 0.520890 0.551167 0.581797 0.612654 0.643604 0.674498 0.705179 0.735477 0.765212 0.794191 0.822210 0.849056 0.874505 0.898322 0.920267 0.940089 0.957535 0.972344 0.984255 0.993006 0.998336 0.999991 0.997721 0.991288 0.980469 0.965056 0.944865 0.919732 0.889528 0.854153 0.813546 0.767688 0.716604 0.660371 0.599118 0.533034 0.462365 0.387423 0.308585 0.226293 0.141059 0.053462 0.035852 0.126175 0.216734 0.306705 0.395207 0.481323 0.564095 0.642545 0.715680 0.782508 0.842051 0.893361 0.935535 0.967733 0.989198 0.999270 0.997408 0.983204 0.956405 0.916924 0.864858 0.800500 0.724347 0.637107 0.539705 0.433281 0.319185 0.198968 0.074367 0.052714 0.180226 0.306010 0.427825 0.543395 0.650446 0.746756 0.830205 0.898826 0.950858 0.984799 0.999453 0.993982 0.967942 0.921322 0.854573 0.768623 0.664883 0.545249 0.412075 0.268147 0.116638 0.038954 0.194883 0.347230 0.492011 0.625276 0.743223 0.842319 0.919407 0.971830 0.997529 0.995143 0.964086 0.904608 0.817832 0.705766 0.571283 0.418079 0.250587 0.073872 0.106510 0.284677 0.454605 0.610343 0.746218 0.857060 0.938415 0.986745 0.999606 0.975793 0.915449 0.820122 0.692768 0.537704 0.360496 0.167785 0.032933 0.233586 0.425844 0.601461 0.752643 0.872410 0.954940 0.995891 0.992656 0.944565 0.852997 0.721408 0.555246 0.361785 0.149834 0.070628 0.288900 0.494077 0.675595 0.823797 0.930467 0.989332 0.996473 0.950629 0.853379 0.709157 0.525131 0.310891 0.078006 0.160562 0.391179 0.600294 0.775261 0.905134 0.981388 0.998546 0.954619 0.851373 0.694346 0.492640 0.258457 0.006425 0.247286 0.485983 0.693545 0.855552 0.960317 0.999803 0.970308 0.872876 0.713393 0.502325 0.254119 0.013713 0.281800 0.530279 0.740285 0.895416 0.983072 0.995565 0.930874 0.792995 0.591823 0.342546 0.064580 0.219868 0.487554 0.716101 0.885893 0.981842 0.994806 0.922574 0.770271 0.550137 0.280664 0.014860 0.310304 0.578973 0.796043 0.940906 0.999215 0.964424 0.838638 0.632671 0.365257 0.061481 0.249510 0.537250 0.772949 0.932431 0.998710 0.963926 0.830418 0.610768 0.326788 0.007468 0.313872 0.603046 0.828632 0.965489 0.997657 0.920385 0.740961 0.478224 0.160758 0.176097 0.494103 0.756462 0.932140 0.999640 0.949808 0.787239 0.530091 0.208261 0.139958 0.472336 0.747815 0.931638 0.999864 0.942664 0.765926 0.490912 0.151893 0.207942 0.541930 0.805960 0.964399 0.995050 0.892463 0.669099 0.354060 0.010481 0.374796 0.688322 0.906736 0.998335 0.948857 0.763927 0.468735 0.104837 0.275489 0.616691 0.868054 0.991368 0.966937 0.796982 0.505814 0.136636 0.254661 0.607864 0.867691 0.992594 0.961606 0.778147 0.470022 0.085517 0.313975 0.663644 0.905810 0.999591 0.928062 0.701609 0.356794 0.049278 0.448184 0.771677 0.963427 0.989058 0.842592 0.548130 0.156220 0.264512 0.639287 0.900423 0.999767 0.917835 0.667992 0.294679 0.134168 0.539278 0.844634 0.991907 0.951843 0.730448 0.368557 0.065322 0.487740 0.816275 0.985733 0.961353 0.746333 0.381929 0.060039 0.491081 0.823695 0.989211 0.952291 0.718870 0.335746 0.118415 0.548927 0.864814 0.998139 0.918992 0.642618 0.226996 0.238890 0.653911
1.000000 1.000000 1.000000 1.000000 1.000000 1.000000 1.000000 1.000000 1.000000 1.000000 1.000000 1.000000 1.000000 1.000000 1.000000 1.000000 1.000000 1.000000 1.000000 1.000000 1.000000 1.000000 1.000000 1.000000 1.000000 1.000000 1.000000 1.000000 1.000000 1.000000 1.000000 1.000000 1.000000 1.000000 1.000000 1.000000 1.000000 1.000000 1.000000 1.000000 1.000000 1.000000 1.000000 1.000000 1.000000 1.000000 1.000000 1.000000 1.000000 1.000000 1.000000 1.000000 0.926929 0.926929 0.926929 0.926929 0.926929 0.926929 0.926929 0.926929 0.926929 0.926929 0.926929 0.926929 0.926929 0.926929 0.926929 0.926929 0.926929 0.926929 0.926929 0.926929 0.926929 0.926929 0.926929 0.926929 0.926929 0.926929 0.926929 0.926929 0.926929 0.926929 0.926929 0.926929 0.926929 0.913212 0.911329 0.912479 0.911017 0.909584 0.908994 0.908599 0.909637 0.911236 0.913317 0.934966 0.938067 0.939312 0.940642 0.942020 0.944310 0.942141 0.949690 0.956188 0.955112 0.956242 0.956356 0.956860 0.956205 0.955459 0.958035 0.957208 0.955581 0.953675 0.952081 0.951558 0.951339 0.954922 0.955356 0.955510 0.956051 0.955972 0.956690 0.957276 0.955297 0.957432 0.949457 0.948305 0.953751 0.951888 0.953459 0.953417 0.954117 0.954873 0.955151 0.955378 0.952175 0.951701 0.950773 0.944791 0.937608 0.937926 0.939583 0.941661 0.938668 0.936679 0.938334 0.939886 0.938975 0.942190 0.933678 0.929686 0.902772 0.888600 0.880267 0.880172 0.884409 0.886974 0.884890 0.879928 0.872314 0.869049 0.867838 0.864887 0.856135 0.858802 0.858675 0.853957 0.857281 0.860461 0.865725 0.864215 0.860220 0.855343 0.849902 0.838155 0.838951 0.839870 0.844162 0.825668 0.813036 0.829257 0.822709 0.814837 0.822814 0.824792 0.822343 0.820931 0.821202 0.819018 0.812285 0.803990 0.807824 0.816903 0.818921 0.809768 0.807352 0.806859 0.806403 0.801308 0.806884 0.809408 0.805912 0.797854 0.815265 0.786626 0.805486 0.806899 0.787720 0.772372 0.760938 0.768939 0.777401 0.771119 0.767803 0.778472 0.778494 0.772030 0.751942 0.735347 0.743042 0.741318 0.732045 0.720601 0.727293 0.720975 0.719023 0.716995 0.720738 0.720887 0.699317 0.713101 0.718121 0.713245 0.725437 0.728392 0.719455 0.722737 0.727248 0.728832 0.728461 0.703080 0.706158 0.640056 0.630616 0.596517 0.593380 0.586811 0.531944 0.536564 0.521506 0.507511 0.507886 0.470864 0.519085 0.416792 0.407695 0.430823 0.359701 0.335388 0.353784 0.355337 0.367724 0.364603 0.363542 0.368358 0.349806 0.321444 0.291931 0.319290 0.333301 0.315048 0.316181 0.288607 0.278912 0.226035 0.241339 0.245596 0.276881 0.278909 0.264797 0.284001 0.326825 0.265173 0.250905 0.228933 0.255293 0.259206 0.250181 0.239470 0.262022 0.199917 0.210872 0.227161 0.229025 0.280496 0.307139 0.321393 0.319208 0.326951 0.356069 0.312402 0.320381 0.327211 0.318604 0.347093 0.350299 0.360686 0.357578 0.391712 0.398269 0.402938 0.409474 0.432299 0.456839 0.432404 0.415447 0.371145 0.386821 0.379405 0.394664 0.340412 0.318229 0.317706 0.287847 0.240786 0.242023 0.240914 0.196319 0.193754 0.178273 0.147156 0.145886 0.154793 0.178047 0.149732 0.162666 0.166848 0.166848 0.166848 0.166848 0.166848 0.166848 0.166848 0.166848 0.166848 0.166848 0.166848 0.166848 0.166848 0.166848 0.187925 0.187925 0.187925 0.187925 0.187925 0.187925 0.187925 0.187925 0.187925 0.187925 0.187925 0.187925
0.000000 0.000000 0.000000 0.000000 0.000000 0.000000 0.000000 0.000000 0.000000 0.000000 0.000000 0.000000 0.000000 0.000000 0.000000 0.000000 0.000000 0.000000 0.000000 0.000000 0.000000 0.000000 0.000000 0.000000 0.000000 0.000000 0.000000 0.000000 0.000000 0.000000 0.000000 0.000000 0.000000 0.000000 0.000000 0.000000 0.000000 0.000000 0.000000 0.000000 0.000000 0.000000 0.000000 0.000000 0.000000 0.000000 0.000000 0.000000 0.000000 0.000000 0.000000 0.000000 0.209657 0.209657 0.209657 0.209657 0.209657 0.209657 0.209657 0.209657 0.209657 0.209657 0.209657 0.209657 0.209657 0.209657 0.209657 0.209657 0.209657 0.209657 0.209657 0.209657 0.209657 0.209657 0.209657 0.209657 0.209657 0.209657 0.209657 0.209657 0.209657 0.209657 0.209657 0.209657 0.209657 0.244339 0.244339 0.244339 0.244339 0.244339 0.244339 0.244339 0.244339 0.244339 0.244339 0.244339 0.244339 0.244339 0.244339 0.244339 0.244339 0.244339 0.244339 0.244339 0.244339 0.244339 0.244339 0.244339 0.244339 0.244339 0.260378 0.260378 0.260378 0.260378 0.260378 0.260378 0.260378 0.260378 0.260378 0.260378 0.260378 0.260378 0.260378 0.260378 0.260378 0.260378 0.260378 0.260378 0.260378 0.260378 0.269680 0.269680 0.269680 0.269680 0.269680 0.269680 0.269680 0.269680 0.269680 0.269680 0.269680 0.269680 0.269680 0.269680 0.269680 0.269680 0.269680 0.269680 0.269680 0.269680 0.269680 0.269680 0.269680 0.269680 0.269680 0.269680 0.269680 0.269680 0.269680 0.269680 0.269680 0.269680 0.269680 0.280056 0.280056 0.280056 0.280056 0.280056 0.280056 0.280056 0.280056 0.280056 0.280056 0.280056 0.280056 0.280056 0.280056 0.280056 0.280056 0.280056 0.280056 0.280056 0.280056 0.280056 0.280056 0.280056 0.280056 0.280056 0.280056 0.280056 0.274721 0.274721 0.274721 0.274721 0.274721 0.274721 0.274721 0.274721 0.274721 0.274721 0.274721 0.274721 0.274721 0.285714 0.285714 0.285714 0.285714 0.285714 0.285714 0.285714 0.285714 0.285714 0.285714 0.285714 0.280056 0.280056 0.280056 0.280056 0.280056 0.280056 0.280056 0.280056 0.280056 0.280056 0.280056 0.274721 0.274721 0.274721 0.274721 0.274721 0.274721 0.274721 0.274721 0.274721 0.274721 0.274721 0.280056 0.280056 0.280056 0.280056 0.280056 0.280056 0.280056 0.280056 0.280056 0.280056 0.285714 0.285714 0.285714 0.285714 0.285714 0.285714 0.285714 0.285714 0.285714 0.269680 0.269680 0.269680 0.269680 0.269680 0.269680 0.269680 0.269680 0.269680 0.269680 0.274721 0.274721 0.274721 0.274721 0.274721 0.274721 0.274721 0.274721 0.274721 0.285714 0.285714 0.285714 0.285714 0.285714 0.285714 0.285714 0.285714 0.264906 0.264906 0.264906 0.264906 0.264906 0.264906 0.264906 0.264906 0.264906 0.274721 0.274721 0.274721 0.274721 0.274721 0.274721 0.274721 0.274721 0.269680 0.269680 0.269680 0.269680 0.269680 0.269680 0.269680 0.269680 0.269680 0.269680 0.269680 0.269680 0.269680 0.269680 0.269680 0.269680 0.280056 0.280056 0.280056 0.280056 0.280056 0.280056 0.280056 0.260378 0.260378 0.260378 0.260378 0.260378 0.260378 0.260378 0.260378 0.269680 0.269680 0.269680 0.269680 0.269680 0.269680 0.269680 0.264906 0.264906 0.264906 0.264906 0.264906 0.264906 0.264906 0.264906 0.264906 0.264906 0.264906 0.264906 0.264906 0.264906 0.260378 0.260378 0.260378 0.260378 0.260378 0.260378 0.260378 0.260378 0.260378 0.260378 0.260378 0.260378
