# Output from CTFFind version 4.1.9, run on 2019-11-03 19:00:52
# Input file: stack6_bm3d_averaged_1_3.25_0_3000_half.mrc ; Number of micrographs: 1
# Pixel size: 3.000 Angstroms ; acceleration voltage: 300.0 keV ; spherical aberration: 0.00 mm ; amplitude contrast: 0.07
# Box size: 512 pixels ; min. res.: 30.0 Angstroms ; max. res.: 5.0 Angstroms ; min. def.: 5000.0 um; max. def. 50000.0 um; num. frames averaged: 1
# 6 lines per micrograph: #1 - spatial frequency (1/Angstroms); #2 - 1D rotational average of spectrum (assuming no astigmatism); #3 - 1D rotational average of spectrum; #4 - CTF fit; #5 - cross-correlation between spectrum and CTF fit; #6 - 2sigma of expected cross correlation of noise
0.000000 0.000651 0.001302 0.001953 0.002604 0.003255 0.003906 0.004557 0.005208 0.005859 0.006510 0.007161 0.007812 0.008464 0.009115 0.009766 0.010417 0.011068 0.011719 0.012370 0.013021 0.013672 0.014323 0.014974 0.015625 0.016276 0.016927 0.017578 0.018229 0.018880 0.019531 0.020182 0.020833 0.021484 0.022135 0.022786 0.023438 0.024089 0.024740 0.025391 0.026042 0.026693 0.027344 0.027995 0.028646 0.029297 0.029948 0.030599 0.031250 0.031901 0.032552 0.033203 0.033854 0.034505 0.035156 0.035807 0.036458 0.037109 0.037760 0.038411 0.039062 0.039714 0.040365 0.041016 0.041667 0.042318 0.042969 0.043620 0.044271 0.044922 0.045573 0.046224 0.046875 0.047526 0.048177 0.048828 0.049479 0.050130 0.050781 0.051432 0.052083 0.052734 0.053385 0.054036 0.054688 0.055339 0.055990 0.056641 0.057292 0.057943 0.058594 0.059245 0.059896 0.060547 0.061198 0.061849 0.062500 0.063151 0.063802 0.064453 0.065104 0.065755 0.066406 0.067057 0.067708 0.068359 0.069010 0.069661 0.070312 0.070964 0.071615 0.072266 0.072917 0.073568 0.074219 0.074870 0.075521 0.076172 0.076823 0.077474 0.078125 0.078776 0.079427 0.080078 0.080729 0.081380 0.082031 0.082682 0.083333 0.083984 0.084635 0.085286 0.085938 0.086589 0.087240 0.087891 0.088542 0.089193 0.089844 0.090495 0.091146 0.091797 0.092448 0.093099 0.093750 0.094401 0.095052 0.095703 0.096354 0.097005 0.097656 0.098307 0.098958 0.099609 0.100260 0.100911 0.101562 0.102214 0.102865 0.103516 0.104167 0.104818 0.105469 0.106120 0.106771 0.107422 0.108073 0.108724 0.109375 0.110026 0.110677 0.111328 0.111979 0.112630 0.113281 0.113932 0.114583 0.115234 0.115885 0.116536 0.117188 0.117839 0.118490 0.119141 0.119792 0.120443 0.121094 0.121745 0.122396 0.123047 0.123698 0.124349 0.125000 0.125651 0.126302 0.126953 0.127604 0.128255 0.128906 0.129557 0.130208 0.130859 0.131510 0.132161 0.132812 0.133464 0.134115 0.134766 0.135417 0.136068 0.136719 0.137370 0.138021 0.138672 0.139323 0.139974 0.140625 0.141276 0.141927 0.142578 0.143229 0.143880 0.144531 0.145182 0.145833 0.146484 0.147135 0.147786 0.148438 0.149089 0.149740 0.150391 0.151042 0.151693 0.152344 0.152995 0.153646 0.154297 0.154948 0.155599 0.156250 0.156901 0.157552 0.158203 0.158854 0.159505 0.160156 0.160807 0.161458 0.162109 0.162760 0.163411 0.164062 0.164714 0.165365 0.166016 0.166667 0.167318 0.167969 0.168620 0.169271 0.169922 0.170573 0.171224 0.171875 0.172526 0.173177 0.173828 0.174479 0.175130 0.175781 0.176432 0.177083 0.177734 0.178385 0.179036 0.179688 0.180339 0.180990 0.181641 0.182292 0.182943 0.183594 0.184245 0.184896 0.185547 0.186198 0.186849 0.187500 0.188151 0.188802 0.189453 0.190104 0.190755 0.191406 0.192057 0.192708 0.193359 0.194010 0.194661 0.195312 0.195964 0.196615 0.197266 0.197917 0.198568 0.199219 0.199870 0.200521 0.201172 0.201823 0.202474 0.203125 0.203776 0.204427 0.205078 0.205729 0.206380 0.207031 0.207682 0.208333 0.208984 0.209635 0.210286 0.210938 0.211589 0.212240 0.212891 0.213542 0.214193 0.214844 0.215495 0.216146 0.216797 0.217448 0.218099 0.218750 0.219401 0.220052 0.220703 0.221354 0.222005 0.222656 0.223307 0.223958 0.224609 0.225260 0.225911 0.226562 0.227214 0.227865 0.228516 0.229167 0.229818 0.230469 0.231120 0.231771 0.232422 0.233073 0.233724 0.234375 0.235026 0.235677
       0.29956        0.29956        0.29956        0.29956        0.29956        0.29956        0.29956        0.29956        0.29956        0.29956        0.29956        0.29956        0.29956        0.29956        0.29956        0.29956        0.29956        0.29956        0.29956        0.29956        0.29956        0.29956        0.29956        0.29956        0.29956        0.29956        0.29956        0.29956        0.29956        0.29956        0.29956        0.29956        0.29956        0.29956        0.29956        0.29956        0.29956        0.29956        0.29956        0.29956        0.29956        0.29956        0.29956        0.29956        0.29956        0.29956        0.29956        0.29956        0.29956        0.29956        0.29956        0.61677        0.77133        0.37299        0.24864        0.14920       -0.13574        0.11847        0.02207        0.03591        0.10264        0.33999        0.38935        0.33750        0.19718       -0.02441        0.02117        0.05884       -0.17196       -0.17932       -0.09307       -0.11989       -0.28973       -0.17863       -0.31566       -0.28446       -0.29981       -0.39007       -0.45976       -0.44902       -0.37654       -0.32979       -0.41489       -0.31655       -0.38795       -0.32372       -0.25954       -0.19876       -0.17020       -0.08162       -0.05120        0.06373        0.10000        0.22165        0.31916        0.38265        0.38253        0.49052        0.56468        0.59381        0.67783        0.65032        0.71196        0.61210        0.64804        0.65514        0.59108        0.59284        0.60429        0.39989        0.35574        0.35568        0.33494        0.18730        0.12416        0.06221        0.07428        0.03511       -0.05952        0.00393       -0.03409       -0.07636        0.05481        0.15986        0.25974        0.32251        0.32162        0.38724        0.50281        0.53266        0.48912        0.64890        0.52902        0.50876        0.55892        0.55755        0.51665        0.46822        0.40112        0.35698        0.23889        0.18987        0.13000        0.14103        0.11207        0.06323        0.09187        0.14796        0.15816        0.16152        0.21185        0.24959        0.33690        0.44536        0.44436        0.44386        0.50449        0.56172        0.53500        0.49503        0.38234        0.40572        0.35862        0.28036        0.22939        0.21512        0.16767        0.17783        0.17113        0.17191        0.14161        0.20459        0.24143        0.33544        0.37405        0.39777        0.45788        0.48622        0.43591        0.44050        0.40356        0.40076        0.40225        0.34046        0.27325        0.26720        0.20618        0.22792        0.21841        0.19007        0.21458        0.22486        0.24826        0.31699        0.36483        0.36985        0.37657        0.38542        0.43447        0.42457        0.40830        0.31534        0.30678        0.27608        0.29064        0.24313        0.20005        0.25308        0.30215        0.28863        0.28641        0.32694        0.30941        0.38119        0.33743        0.34564        0.35556        0.33955        0.32218        0.30067        0.27113        0.28202        0.25327        0.23227        0.25568        0.26860        0.29528        0.30942        0.33742        0.35731        0.32040        0.30811        0.34409        0.32036        0.25665        0.27816        0.27300        0.25194        0.25681        0.28719        0.26942        0.26955        0.30180        0.29657        0.31393        0.32140        0.33586        0.27262        0.28617        0.29814        0.27832        0.25422        0.24597        0.23254        0.24595        0.26070        0.26859        0.28391        0.27395        0.30832        0.33500        0.29647        0.30131        0.23726        0.23764        0.24881        0.23017        0.22319        0.25119        0.29080        0.25093        0.29204        0.29260        0.28335        0.31302        0.25695        0.28998        0.28436        0.28848        0.26113        0.23759        0.23349        0.24477        0.29206        0.29463        0.30601        0.29843        0.31172        0.28466        0.32619        0.27757        0.19923        0.28112        0.27523        0.26875        0.28734        0.30482        0.29542        0.34342        0.28620        0.23955        0.23859        0.23385        0.25938        0.29152        0.29364        0.25638        0.27388        0.25233        0.27362        0.26258        0.25906        0.23424        0.25833        0.28509        0.24682        0.26492        0.29835        0.29083        0.25662        0.26732        0.24540        0.27856        0.20986        0.20909        0.23355        0.27190        0.27431        0.30652        0.27037        0.22793        0.25347        0.22857        0.20831        0.18498        0.20893        0.20590        0.24836        0.24986        0.19574        0.26200        0.24299        0.28618        0.23546        0.16252        0.19045        0.19195        0.14607        0.21634        0.16067        0.16275        0.19290        0.10414        0.25062        0.09959        0.04337        0.15001        0.12092        0.15802        0.18270       -0.11480       -0.53282       -0.90339
2.885135 2.856828 2.828665 2.800647 2.772773 2.745044 2.717459 2.690019 2.662723 2.635571 2.608564 2.581701 2.554983 2.528409 2.501980 2.475695 2.449554 2.423558 2.397706 2.371999 2.346436 2.321018 2.295744 2.270614 2.245629 2.220789 2.196092 2.171540 2.147133 2.122870 2.098752 2.074777 2.050948 2.027262 2.003722 1.980325 1.957073 1.933966 1.911003 1.888184 1.865510 1.842980 1.820594 1.798353 1.776257 1.754305 1.732497 1.710834 1.689315 1.667941 1.646711 1.974055 2.301103 1.688590 1.679886 1.357495 0.867543 1.209224 1.070839 1.110555 0.987404 1.559090 1.503679 1.508706 1.250495 0.931244 0.779307 1.010737 0.729046 0.436750 0.574631 0.661288 0.392935 0.463881 0.286282 0.278099 0.189840 0.168606 -0.077187 -0.025810 0.044524 0.041413 0.021793 0.127268 -0.054394 0.009302 0.117001 0.207218 0.243941 0.306763 0.339057 0.611063 0.494837 0.672540 0.892643 0.923138 0.915359 1.151765 1.153151 1.230284 1.321934 1.196817 1.412695 1.174565 1.168341 1.327967 1.128075 1.068954 1.188967 0.899728 0.694441 0.686447 0.724694 0.446011 0.391717 0.247972 0.215501 0.147357 0.006796 0.128894 0.017494 -0.075073 0.092019 0.218223 0.350603 0.476550 0.503446 0.524390 0.715477 0.780334 0.607329 0.969188 0.814995 0.665908 0.761873 0.728214 0.717789 0.699681 0.459940 0.506635 0.261493 0.202091 0.117563 -0.013458 0.060229 -0.067523 -0.042908 -0.020548 0.097657 -0.047727 0.209102 0.135082 0.206995 0.396928 0.465524 0.443550 0.395065 0.621167 0.622437 0.491826 0.350047 0.351758 0.330365 0.171600 0.089141 0.043389 0.024865 -0.024456 -0.036286 -0.033126 -0.106455 -0.007118 0.021052 0.109637 0.254970 0.231413 0.366575 0.353536 0.398233 0.348995 0.432050 0.362321 0.261080 0.344872 0.126853 0.190405 0.036576 0.072373 0.037384 0.027826 -0.037863 0.037226 0.065564 0.111883 0.232883 0.272505 0.220324 0.264291 0.336148 0.333521 0.331946 0.196325 0.123090 0.153601 0.077233 0.096921 -0.020381 -0.024063 0.099018 0.089990 0.101324 0.096227 0.128550 0.206774 0.209149 0.184394 0.168979 0.194446 0.138412 0.139999 0.066317 0.062604 0.094459 -0.034353 0.029912 0.063717 0.020452 0.137682 0.110423 0.183367 0.191562 0.130366 0.110387 0.181723 0.102484 0.028179 0.082100 0.036184 0.011047 0.060030 0.076326 0.045229 0.033867 0.131724 0.078382 0.112677 0.139234 0.112361 0.082146 0.044173 0.089001 0.058640 0.004920 -0.009498 -0.023683 0.007942 0.009659 0.045401 0.086716 0.001056 0.084328 0.147571 0.023318 0.071876 -0.035952 -0.005494 -0.024661 -0.047265 -0.057241 0.035872 0.046033 -0.046226 0.070074 0.040603 0.051485 0.055738 -0.005510 0.010072 0.075980 -0.013821 0.015684 -0.055146 -0.035516 -0.038502 0.050684 0.054556 0.038518 0.008148 0.102276 0.005197 0.098232 -0.052868 -0.112645 0.024038 -0.011078 0.001046 -0.017336 0.089315 0.024695 0.071294 -0.008592 -0.120005 -0.047747 -0.096968 0.013624 0.003461 0.007545 -0.046814 -0.031275 -0.056746 -0.030813 -0.048951 -0.034752 -0.103478 -0.058788 0.001817 -0.066959 0.003138 0.022342 -0.014422 -0.039880 0.026560 -0.024857 0.022260 -0.087909 -0.079320 -0.051086 0.048856 0.072549 0.072429 0.033614 -0.024303 0.050923 -0.020163 -0.093298 -0.002602 -0.073382 0.003211 0.052244 0.065702 -0.027361 0.099858 0.070193 0.180123 0.034090 -0.011544 0.026680 0.036622 -0.096895 0.102059 -0.047046 0.078387 0.054841 0.014455 0.381884 0.111701 0.068386 0.302019 0.205343 0.209036 0.342701 -0.169770 -1.363843
0.072396 0.072835 0.074150 0.076342 0.079411 0.083355 0.088174 0.093866 0.100430 0.107864 0.116166 0.125332 0.135358 0.146241 0.157974 0.170552 0.183967 0.198209 0.213269 0.229134 0.245791 0.263225 0.281417 0.300347 0.319992 0.340329 0.361327 0.382956 0.405181 0.427965 0.451264 0.475034 0.499224 0.523781 0.548645 0.573753 0.599038 0.624426 0.649840 0.675195 0.700405 0.725376 0.750008 0.774199 0.797838 0.820814 0.843005 0.864290 0.884540 0.903625 0.921407 0.937751 0.952513 0.965551 0.976720 0.985876 0.992872 0.997566 0.999815 0.999481 0.996428 0.990527 0.981656 0.969700 0.954554 0.936123 0.914325 0.889093 0.860373 0.828130 0.792347 0.753027 0.710195 0.663898 0.614211 0.561230 0.505083 0.445923 0.383934 0.319329 0.252352 0.183279 0.112413 0.040091 0.033320 0.107427 0.181805 0.256006 0.329557 0.401963 0.472710 0.541271 0.607104 0.669662 0.728395 0.782754 0.832198 0.876200 0.914253 0.945874 0.970616 0.988067 0.997863 0.999694 0.993306 0.978515 0.955207 0.923345 0.882978 0.834242 0.777364 0.712667 0.640571 0.561594 0.476353 0.385558 0.290016 0.190622 0.088353 0.015738 0.120531 0.224851 0.327480 0.427169 0.522656 0.612679 0.695998 0.771408 0.837762 0.893990 0.939117 0.972285 0.992767 0.999993 0.993558 0.973244 0.939028 0.891098 0.829852 0.755914 0.670123 0.573541 0.467437 0.353282 0.232732 0.107606 0.020134 0.148414 0.275080 0.397932 0.514761 0.623394 0.721733 0.807799 0.879777 0.936059 0.975284 0.996375 0.998578 0.981488 0.945074 0.889697 0.816118 0.725500 0.619403 0.499762 0.368864 0.229310 0.083974 0.064060 0.211548 0.355168 0.491584 0.617532 0.729899 0.825804 0.902680 0.958350 0.991097 0.999725 0.983614 0.942751 0.877766 0.789928 0.681145 0.553932 0.411368 0.257031 0.094922 0.070640 0.235120 0.393894 0.542379 0.676166 0.791162 0.883717 0.950756 0.989888 0.999509 0.978877 0.928167 0.848498 0.741930 0.611432 0.460818 0.294643 0.118094 0.063181 0.243231 0.416004 0.575551 0.716230 0.832926 0.921235 0.977653 0.999731 0.986199 0.937048 0.853578 0.738383 0.595304 0.429322 0.246394 0.053270 0.142758 0.334116 0.513251 0.672920 0.806499 0.908277 0.973705 0.999632 0.984474 0.928331 0.833029 0.702103 0.540686 0.355341 0.153811 0.055280 0.262796 0.459482 0.636369 0.785207 0.898860 0.971664 0.999741 0.981235 0.916451 0.807908 0.660277 0.480217 0.276103 0.057661 0.164479 0.379293 0.575908 0.744159 0.875136 0.961672 0.998772 0.983929 0.917329 0.801907 0.643271 0.449465 0.230597 0.001665 0.234690 0.455570 0.651840 0.812181 0.927112 0.989573 0.995397 0.943628 0.836661 0.680181 0.482914 0.256184 0.013284 0.231269 0.462600 0.666388 0.829748 0.942101 0.995872 0.987059 0.915569 0.785325 0.604103 0.383128 0.136414 0.120090 0.369508 0.595152 0.781653 0.916023 0.988602 0.993805 0.930602 0.802694 0.618370 0.390019 0.133362 0.133611 0.391869 0.622703 0.809090 0.936983 0.996412 0.982322 0.895056 0.740456 0.529545 0.277796 0.004052 0.270846 0.525645 0.740329 0.897699 0.984825 0.994143 0.924190 0.779851 0.572105 0.317252 0.035705 0.249617 0.515134 0.738550 0.900777 0.987587 0.990946 0.909822 0.750422 0.525810 0.254913 0.039027 0.330380 0.593383 0.804413 0.944146 0.999401 0.964447 0.841684 0.641589 0.381910 0.086171 0.218412 0.503404 0.741802 0.910652 0.993285 0.981066 0.874378 0.682757 0.424156 0.123335 0.190438 0.486207 0.734385 0.909740
1.000000 1.000000 1.000000 1.000000 1.000000 1.000000 1.000000 1.000000 1.000000 1.000000 1.000000 1.000000 1.000000 1.000000 1.000000 1.000000 1.000000 1.000000 1.000000 1.000000 1.000000 1.000000 1.000000 1.000000 1.000000 1.000000 1.000000 1.000000 1.000000 1.000000 1.000000 1.000000 1.000000 1.000000 1.000000 1.000000 1.000000 1.000000 1.000000 1.000000 1.000000 1.000000 1.000000 1.000000 1.000000 1.000000 1.000000 1.000000 1.000000 1.000000 1.000000 1.000000 0.829336 0.829336 0.829336 0.829336 0.829336 0.829336 0.829336 0.804993 0.804993 0.804993 0.804993 0.804993 0.804993 0.804993 0.804993 0.804993 0.804993 0.804993 0.804993 0.804993 0.804993 0.804993 0.804993 0.804993 0.804993 0.804993 0.804993 0.804993 0.804993 0.804993 0.804993 0.804993 0.804993 0.804993 0.804993 0.804993 0.804993 0.804993 0.804993 0.804993 0.804993 0.804993 0.804993 0.804993 0.804993 0.804993 0.804993 0.804993 0.804993 0.804993 0.804993 0.949431 0.950233 0.950560 0.949586 0.948096 0.944539 0.942852 0.942056 0.944746 0.944968 0.944954 0.945909 0.946477 0.948048 0.949026 0.950186 0.950512 0.958668 0.962352 0.962075 0.961819 0.961560 0.972290 0.972120 0.971943 0.971944 0.972056 0.972030 0.971936 0.971850 0.971417 0.971141 0.971595 0.971490 0.971071 0.970406 0.968956 0.968308 0.967705 0.968044 0.968829 0.967574 0.968127 0.970784 0.969947 0.969841 0.968514 0.967723 0.963167 0.961089 0.959076 0.959353 0.960543 0.960481 0.960065 0.959046 0.959098 0.959030 0.957936 0.957772 0.956653 0.953303 0.953423 0.953440 0.954224 0.948954 0.939321 0.937610 0.935482 0.936225 0.938723 0.941531 0.940862 0.940903 0.938624 0.931738 0.927041 0.918341 0.917457 0.915229 0.918931 0.919252 0.920421 0.920119 0.920766 0.918925 0.918254 0.907135 0.910369 0.908295 0.906233 0.901575 0.899777 0.898731 0.900044 0.902164 0.896904 0.885389 0.880270 0.870393 0.842049 0.840435 0.843057 0.851275 0.850472 0.848241 0.846780 0.832980 0.829747 0.816405 0.809624 0.811108 0.812542 0.813631 0.816731 0.818482 0.812392 0.799345 0.792452 0.797188 0.807311 0.817059 0.822105 0.819178 0.814373 0.813946 0.776926 0.772464 0.775344 0.762084 0.766110 0.753402 0.753620 0.759621 0.759059 0.755012 0.755627 0.754542 0.728738 0.733649 0.738483 0.740894 0.742483 0.728930 0.722684 0.682436 0.679967 0.650055 0.659961 0.661391 0.666776 0.654975 0.661869 0.666976 0.663116 0.670637 0.669592 0.645650 0.633763 0.637860 0.645450 0.611127 0.620741 0.619932 0.613207 0.605388 0.611120 0.624642 0.620724 0.597932 0.596791 0.567186 0.545212 0.530985 0.515610 0.502405 0.484862 0.496900 0.496251 0.501913 0.472901 0.453130 0.386958 0.390734 0.390838 0.351375 0.358038 0.354337 0.323087 0.352723 0.344910 0.362023 0.333257 0.314026 0.289304 0.210071 0.191316 0.143690 0.164174 0.160707 0.148139 0.143453 0.144192 0.130336 0.086679 0.077661 0.078520 0.101807 0.092860 0.067661 0.080375 0.078808 0.064321 0.050974 0.051560 0.100374 0.074708 0.081404 0.082183 0.040753 0.016240 -0.043317 -0.033963 -0.022996 0.008873 0.034367 0.019420 -0.003716 -0.086667 -0.055192 -0.021839 -0.021839 -0.021839 -0.021839 -0.021839 -0.021839 -0.021839 -0.021839 -0.021839 -0.021839 -0.021839 -0.093352 -0.093352 -0.093352 -0.093352 -0.093352 -0.093352 -0.093352 -0.093352 -0.093352 -0.093352 -0.093352 -0.093352 -0.093352 -0.093352 -0.093352 -0.093352 -0.093352 -0.093352 -0.093352
0.000000 0.000000 0.000000 0.000000 0.000000 0.000000 0.000000 0.000000 0.000000 0.000000 0.000000 0.000000 0.000000 0.000000 0.000000 0.000000 0.000000 0.000000 0.000000 0.000000 0.000000 0.000000 0.000000 0.000000 0.000000 0.000000 0.000000 0.000000 0.000000 0.000000 0.000000 0.000000 0.000000 0.000000 0.000000 0.000000 0.000000 0.000000 0.000000 0.000000 0.000000 0.000000 0.000000 0.000000 0.000000 0.000000 0.000000 0.000000 0.000000 0.000000 0.000000 0.000000 0.173422 0.173422 0.173422 0.173422 0.173422 0.173422 0.173422 0.191565 0.191565 0.191565 0.191565 0.191565 0.191565 0.191565 0.191565 0.191565 0.191565 0.191565 0.191565 0.191565 0.191565 0.191565 0.191565 0.191565 0.191565 0.191565 0.191565 0.191565 0.191565 0.191565 0.191565 0.191565 0.191565 0.191565 0.191565 0.191565 0.191565 0.191565 0.191565 0.191565 0.191565 0.191565 0.191565 0.191565 0.191565 0.191565 0.191565 0.191565 0.191565 0.191565 0.191565 0.219529 0.219529 0.219529 0.219529 0.219529 0.219529 0.219529 0.219529 0.219529 0.219529 0.219529 0.219529 0.219529 0.219529 0.219529 0.219529 0.219529 0.219529 0.219529 0.219529 0.219529 0.219529 0.219529 0.219529 0.219529 0.219529 0.219529 0.219529 0.219529 0.219529 0.219529 0.237356 0.237356 0.237356 0.237356 0.237356 0.237356 0.237356 0.237356 0.237356 0.237356 0.237356 0.237356 0.237356 0.237356 0.237356 0.237356 0.237356 0.237356 0.237356 0.237356 0.237356 0.237356 0.237356 0.237356 0.244339 0.244339 0.244339 0.244339 0.244339 0.244339 0.244339 0.244339 0.244339 0.244339 0.244339 0.244339 0.244339 0.244339 0.244339 0.244339 0.244339 0.244339 0.244339 0.244339 0.244339 0.248069 0.248069 0.248069 0.248069 0.248069 0.248069 0.248069 0.248069 0.248069 0.248069 0.248069 0.248069 0.248069 0.248069 0.248069 0.248069 0.248069 0.248069 0.248069 0.248069 0.248069 0.248069 0.248069 0.248069 0.248069 0.248069 0.248069 0.248069 0.248069 0.248069 0.248069 0.248069 0.248069 0.248069 0.248069 0.248069 0.248069 0.256074 0.256074 0.256074 0.256074 0.256074 0.256074 0.256074 0.256074 0.256074 0.256074 0.256074 0.256074 0.256074 0.256074 0.256074 0.256074 0.256074 0.256074 0.256074 0.256074 0.256074 0.256074 0.256074 0.256074 0.256074 0.256074 0.256074 0.256074 0.256074 0.256074 0.256074 0.256074 0.256074 0.256074 0.256074 0.256074 0.256074 0.256074 0.256074 0.256074 0.256074 0.256074 0.256074 0.256074 0.256074 0.260378 0.260378 0.260378 0.260378 0.260378 0.260378 0.260378 0.260378 0.260378 0.260378 0.260378 0.260378 0.260378 0.256074 0.256074 0.256074 0.256074 0.256074 0.256074 0.256074 0.256074 0.256074 0.256074 0.256074 0.256074 0.256074 0.260378 0.260378 0.260378 0.260378 0.260378 0.260378 0.260378 0.260378 0.260378 0.260378 0.260378 0.260378 0.251976 0.251976 0.251976 0.251976 0.251976 0.251976 0.251976 0.251976 0.251976 0.251976 0.251976 0.251976 0.256074 0.256074 0.256074 0.256074 0.256074 0.256074 0.256074 0.256074 0.256074 0.256074 0.256074 0.251976 0.251976 0.251976 0.251976 0.251976 0.251976 0.251976 0.251976 0.251976 0.251976 0.251976 0.248069 0.248069 0.248069 0.248069 0.248069 0.248069 0.248069 0.248069 0.248069 0.248069 0.248069 0.256074 0.256074 0.256074 0.256074 0.256074 0.256074 0.256074 0.256074 0.256074 0.256074 0.256074 0.256074 0.256074 0.256074 0.256074 0.256074 0.256074 0.256074 0.256074
