# Output from CTFFind version 4.1.9, run on 2019-11-02 17:49:15
# Input file: stack6_bm3d_averaged_1_0.75_0_2500_half.mrc ; Number of micrographs: 1
# Pixel size: 3.000 Angstroms ; acceleration voltage: 300.0 keV ; spherical aberration: 0.00 mm ; amplitude contrast: 0.07
# Box size: 512 pixels ; min. res.: 30.0 Angstroms ; max. res.: 5.0 Angstroms ; min. def.: 5000.0 um; max. def. 50000.0 um; num. frames averaged: 1
# 6 lines per micrograph: #1 - spatial frequency (1/Angstroms); #2 - 1D rotational average of spectrum (assuming no astigmatism); #3 - 1D rotational average of spectrum; #4 - CTF fit; #5 - cross-correlation between spectrum and CTF fit; #6 - 2sigma of expected cross correlation of noise
0.000000 0.000651 0.001302 0.001953 0.002604 0.003255 0.003906 0.004557 0.005208 0.005859 0.006510 0.007161 0.007812 0.008464 0.009115 0.009766 0.010417 0.011068 0.011719 0.012370 0.013021 0.013672 0.014323 0.014974 0.015625 0.016276 0.016927 0.017578 0.018229 0.018880 0.019531 0.020182 0.020833 0.021484 0.022135 0.022786 0.023438 0.024089 0.024740 0.025391 0.026042 0.026693 0.027344 0.027995 0.028646 0.029297 0.029948 0.030599 0.031250 0.031901 0.032552 0.033203 0.033854 0.034505 0.035156 0.035807 0.036458 0.037109 0.037760 0.038411 0.039062 0.039714 0.040365 0.041016 0.041667 0.042318 0.042969 0.043620 0.044271 0.044922 0.045573 0.046224 0.046875 0.047526 0.048177 0.048828 0.049479 0.050130 0.050781 0.051432 0.052083 0.052734 0.053385 0.054036 0.054688 0.055339 0.055990 0.056641 0.057292 0.057943 0.058594 0.059245 0.059896 0.060547 0.061198 0.061849 0.062500 0.063151 0.063802 0.064453 0.065104 0.065755 0.066406 0.067057 0.067708 0.068359 0.069010 0.069661 0.070312 0.070964 0.071615 0.072266 0.072917 0.073568 0.074219 0.074870 0.075521 0.076172 0.076823 0.077474 0.078125 0.078776 0.079427 0.080078 0.080729 0.081380 0.082031 0.082682 0.083333 0.083984 0.084635 0.085286 0.085938 0.086589 0.087240 0.087891 0.088542 0.089193 0.089844 0.090495 0.091146 0.091797 0.092448 0.093099 0.093750 0.094401 0.095052 0.095703 0.096354 0.097005 0.097656 0.098307 0.098958 0.099609 0.100260 0.100911 0.101562 0.102214 0.102865 0.103516 0.104167 0.104818 0.105469 0.106120 0.106771 0.107422 0.108073 0.108724 0.109375 0.110026 0.110677 0.111328 0.111979 0.112630 0.113281 0.113932 0.114583 0.115234 0.115885 0.116536 0.117188 0.117839 0.118490 0.119141 0.119792 0.120443 0.121094 0.121745 0.122396 0.123047 0.123698 0.124349 0.125000 0.125651 0.126302 0.126953 0.127604 0.128255 0.128906 0.129557 0.130208 0.130859 0.131510 0.132161 0.132812 0.133464 0.134115 0.134766 0.135417 0.136068 0.136719 0.137370 0.138021 0.138672 0.139323 0.139974 0.140625 0.141276 0.141927 0.142578 0.143229 0.143880 0.144531 0.145182 0.145833 0.146484 0.147135 0.147786 0.148438 0.149089 0.149740 0.150391 0.151042 0.151693 0.152344 0.152995 0.153646 0.154297 0.154948 0.155599 0.156250 0.156901 0.157552 0.158203 0.158854 0.159505 0.160156 0.160807 0.161458 0.162109 0.162760 0.163411 0.164062 0.164714 0.165365 0.166016 0.166667 0.167318 0.167969 0.168620 0.169271 0.169922 0.170573 0.171224 0.171875 0.172526 0.173177 0.173828 0.174479 0.175130 0.175781 0.176432 0.177083 0.177734 0.178385 0.179036 0.179688 0.180339 0.180990 0.181641 0.182292 0.182943 0.183594 0.184245 0.184896 0.185547 0.186198 0.186849 0.187500 0.188151 0.188802 0.189453 0.190104 0.190755 0.191406 0.192057 0.192708 0.193359 0.194010 0.194661 0.195312 0.195964 0.196615 0.197266 0.197917 0.198568 0.199219 0.199870 0.200521 0.201172 0.201823 0.202474 0.203125 0.203776 0.204427 0.205078 0.205729 0.206380 0.207031 0.207682 0.208333 0.208984 0.209635 0.210286 0.210938 0.211589 0.212240 0.212891 0.213542 0.214193 0.214844 0.215495 0.216146 0.216797 0.217448 0.218099 0.218750 0.219401 0.220052 0.220703 0.221354 0.222005 0.222656 0.223307 0.223958 0.224609 0.225260 0.225911 0.226562 0.227214 0.227865 0.228516 0.229167 0.229818 0.230469 0.231120 0.231771 0.232422 0.233073 0.233724 0.234375 0.235026 0.235677
       0.31390        0.31390        0.31390        0.31390        0.31390        0.31390        0.31390        0.31390        0.31390        0.31390        0.31390        0.31390        0.31390        0.31390        0.31390        0.31390        0.31390        0.31390        0.31390        0.31390        0.31390        0.31390        0.31390        0.31390        0.31390        0.31390        0.31390        0.31390        0.31390        0.31390        0.31390        0.31390        0.31390        0.31390        0.31390        0.31390        0.31390        0.31390        0.31390        0.31390        0.31390        0.31390        0.31390        0.31390        0.31390        0.31390        0.31390        0.31390        0.31390        0.31390        0.31390        0.63816        0.82262        0.41821        0.31438        0.19333       -0.10262        0.11454       -0.00038        0.03652        0.11969        0.33870        0.42884        0.41113        0.22785       -0.00752        0.05008        0.07439       -0.16303       -0.17525       -0.08749       -0.10537       -0.29064       -0.18431       -0.30081       -0.25359       -0.28135       -0.39811       -0.47443       -0.47574       -0.41934       -0.33646       -0.43669       -0.36628       -0.40674       -0.34760       -0.27109       -0.19718       -0.19109       -0.13231       -0.09260        0.03802        0.08675        0.25080        0.28368        0.37420        0.40351        0.51852        0.58943        0.60793        0.74402        0.70202        0.74190        0.65068        0.66745        0.70040        0.63625        0.61693        0.61038        0.43834        0.40119        0.36174        0.32618        0.22505        0.13737        0.06235        0.06100       -0.00139       -0.07686       -0.03172       -0.02940       -0.06698        0.06425        0.16770        0.25811        0.32353        0.34027        0.43500        0.54771        0.59252        0.54593        0.67004        0.56681        0.54461        0.60125        0.64340        0.53377        0.46123        0.41070        0.37753        0.25441        0.21901        0.13326        0.11695        0.05802        0.06442        0.11351        0.17027        0.14932        0.18097        0.21931        0.24181        0.33648        0.45942        0.49855        0.49977        0.52424        0.57859        0.57261        0.52637        0.42679        0.38770        0.36936        0.27159        0.25055        0.21992        0.20822        0.20850        0.18561        0.15938        0.12596        0.19113        0.25094        0.35107        0.38439        0.40711        0.46392        0.53872        0.48046        0.48567        0.42314        0.40196        0.38539        0.36611        0.29198        0.26231        0.20571        0.23689        0.22062        0.19485        0.21936        0.22638        0.24456        0.30007        0.40294        0.40285        0.37265        0.39173        0.45691        0.48613        0.42988        0.35756        0.32845        0.28562        0.26425        0.24672        0.21380        0.28668        0.29516        0.29493        0.31809        0.31280        0.35219        0.37424        0.37605        0.37774        0.35716        0.31998        0.33806        0.32097        0.30209        0.28346        0.27321        0.21954        0.27434        0.27601        0.30510        0.32383        0.34580        0.37630        0.34153        0.32158        0.35982        0.37250        0.27166        0.29870        0.30781        0.24599        0.21504        0.26154        0.27182        0.27826        0.30142        0.30696        0.33613        0.33808        0.36520        0.33144        0.32703        0.31137        0.29393        0.27475        0.24994        0.25615        0.26120        0.27559        0.30112        0.29428        0.30038        0.31548        0.33110        0.26712        0.30720        0.27013        0.26539        0.28088        0.26616        0.26209        0.26878        0.31530        0.29012        0.32086        0.28910        0.27797        0.31016        0.31228        0.33182        0.31711        0.29727        0.25648        0.27142        0.27817        0.26924        0.31208        0.31683        0.34089        0.32600        0.30669        0.26432        0.28497        0.21375        0.20667        0.24300        0.26488        0.25477        0.29132        0.31260        0.29518        0.34927        0.31308        0.27031        0.23682        0.23668        0.28738        0.30820        0.30702        0.26653        0.27718        0.25370        0.32445        0.28793        0.25184        0.26778        0.25546        0.29187        0.25236        0.29543        0.32999        0.28918        0.21728        0.22829        0.28178        0.32708        0.28056        0.26841        0.24523        0.27825        0.28907        0.37422        0.30208        0.28805        0.25994        0.26592        0.22650        0.18291        0.25726        0.23348        0.20980        0.19618        0.19604        0.23667        0.23125        0.24358        0.19341        0.25107        0.23023        0.20558        0.17992        0.16782        0.19995        0.23338        0.15437        0.07826        0.19393        0.19961        0.15609        0.25204        0.14665        0.23291        0.22250       -0.08565       -0.48995       -0.95212
2.863778 2.835602 2.807571 2.779685 2.751944 2.724348 2.696897 2.669590 2.642429 2.615412 2.588540 2.561814 2.535232 2.508795 2.482502 2.456355 2.430353 2.404495 2.378783 2.353215 2.327792 2.302514 2.277381 2.252393 2.227550 2.202851 2.178298 2.153889 2.129626 2.105507 2.081533 2.057704 2.034020 2.010481 1.987086 1.963837 1.940732 1.917773 1.894958 1.872288 1.849763 1.827383 1.805148 1.783057 1.761112 1.739311 1.717656 1.696145 1.674779 1.653558 1.632482 1.930562 2.288838 1.705500 1.749498 1.390706 0.949735 1.207018 1.026388 1.079539 1.036275 1.498509 1.528340 1.556298 1.286019 0.950743 0.829337 1.015353 0.723955 0.497962 0.586389 0.682879 0.423217 0.494296 0.326512 0.372308 0.250840 0.166058 -0.037226 0.001466 0.028003 0.080106 0.041044 0.073731 -0.039264 0.026595 0.114954 0.227156 0.289514 0.210314 0.322015 0.550644 0.454457 0.729949 0.794282 0.886525 0.912623 1.120752 1.143327 1.177775 1.335546 1.240784 1.379002 1.186995 1.118163 1.304112 1.149610 1.057985 1.129185 0.892966 0.746401 0.683727 0.675647 0.461537 0.400173 0.260738 0.232898 0.087281 -0.009138 0.085654 0.025755 -0.063555 0.114854 0.254321 0.307954 0.469894 0.488490 0.563114 0.724175 0.820814 0.666346 0.958463 0.799768 0.670063 0.770063 0.805713 0.713056 0.641152 0.452887 0.501311 0.283182 0.198623 0.141351 0.004313 -0.021362 -0.100384 -0.013015 0.023382 0.097620 -0.053242 0.249630 0.096581 0.209916 0.378349 0.443658 0.532046 0.439767 0.577991 0.628796 0.520776 0.392289 0.335032 0.324838 0.153873 0.127939 0.021164 0.089205 0.036402 -0.001159 -0.025734 -0.125983 -0.013649 0.019043 0.110221 0.296097 0.199887 0.353907 0.372215 0.427486 0.435301 0.375201 0.324329 0.228018 0.305163 0.166166 0.154678 0.015174 0.047401 0.065752 -0.025551 -0.010550 0.014682 0.058268 0.072430 0.210525 0.307743 0.238378 0.206955 0.376840 0.406537 0.351948 0.243479 0.176397 0.153055 0.083127 0.075569 0.017992 0.019689 0.136660 0.048393 0.187322 0.086521 0.144012 0.230802 0.211975 0.222154 0.210162 0.191746 0.122140 0.163485 0.121551 0.098047 0.106507 -0.000690 0.027848 0.087171 0.048831 0.148092 0.119683 0.208084 0.201810 0.134231 0.127772 0.227589 0.121901 0.075603 0.086301 0.056655 -0.000929 -0.026300 0.041957 0.068440 0.028118 0.112771 0.107339 0.123947 0.127194 0.180178 0.119332 0.080353 0.097572 0.079089 0.013928 0.011940 0.028664 -0.001248 0.063816 0.101148 0.055182 0.062130 0.141097 0.085036 0.015851 0.112462 0.019047 0.031960 0.061675 0.018430 0.011194 0.061915 0.085969 0.035602 0.111059 0.055412 0.024937 0.123664 0.074269 0.090631 0.095245 0.028096 -0.004229 0.009123 0.051566 0.023333 0.058628 0.100129 0.102378 0.061470 0.131369 0.000849 0.034186 -0.088329 -0.015903 -0.040269 0.016603 0.016959 0.042307 0.071626 0.078556 0.117267 0.021162 -0.004185 -0.059053 -0.078906 0.072055 0.042072 0.059348 -0.022287 -0.001621 -0.039929 0.075596 0.018579 -0.059499 -0.016393 -0.070892 0.031879 -0.040415 0.039500 0.066875 -0.011475 -0.071752 -0.059306 0.109481 0.054433 0.019169 0.004678 -0.047122 0.078680 0.069258 0.172270 0.061977 0.028508 0.036507 0.067665 -0.051500 -0.041281 0.062442 0.024678 -0.022708 -0.030315 -0.043627 0.090809 -0.051649 0.081796 -0.004404 0.111016 -0.011792 0.049146 -0.088481 -0.026527 -0.041736 0.082695 -0.020669 -0.126023 0.256791 0.289504 0.221415 0.428706 0.167202 0.305023 0.383706 -0.118764 -1.336753
0.072396 0.072834 0.074148 0.076338 0.079402 0.083342 0.088155 0.093840 0.100397 0.107822 0.116113 0.125268 0.135283 0.146153 0.157873 0.170435 0.183834 0.198060 0.213102 0.228949 0.245587 0.263001 0.281172 0.300081 0.319705 0.340019 0.360995 0.382602 0.404804 0.427564 0.450841 0.474589 0.498757 0.523292 0.548136 0.573225 0.598491 0.623863 0.649261 0.674604 0.699804 0.724766 0.749394 0.773582 0.797224 0.820204 0.842405 0.863704 0.883974 0.903082 0.920895 0.937274 0.952078 0.965165 0.976390 0.985608 0.992674 0.997446 0.999780 0.999538 0.996586 0.990794 0.982040 0.970208 0.955194 0.936903 0.915252 0.890173 0.861612 0.829533 0.793919 0.754771 0.712114 0.665994 0.616483 0.563679 0.507705 0.448715 0.386890 0.322442 0.255612 0.186674 0.115930 0.043715 0.029607 0.103644 0.177974 0.252151 0.325704 0.398140 0.468948 0.537600 0.603557 0.666273 0.725199 0.779787 0.829497 0.873801 0.912192 0.944187 0.969335 0.987225 0.997490 0.999816 0.993948 0.979696 0.956941 0.925643 0.885845 0.837675 0.781356 0.717203 0.645629 0.567145 0.482358 0.391973 0.296790 0.197693 0.095653 0.008282 0.113000 0.217333 0.320065 0.419953 0.515736 0.606156 0.689971 0.765976 0.833020 0.890029 0.936023 0.970132 0.991624 0.999914 0.994585 0.975404 0.942332 0.895539 0.835406 0.762535 0.677747 0.582085 0.476796 0.363334 0.243336 0.118606 0.008911 0.137153 0.263973 0.387180 0.504568 0.613962 0.713259 0.800472 0.873773 0.931534 0.972372 0.995187 0.999193 0.983951 0.949394 0.895845 0.824025 0.735057 0.630459 0.512126 0.382311 0.243578 0.098773 0.049045 0.196652 0.340733 0.477960 0.605060 0.718909 0.816603 0.895542 0.953509 0.988738 0.999978 0.986546 0.948364 0.885988 0.800617 0.694088 0.568844 0.427902 0.274781 0.113431 0.051867 0.216602 0.376166 0.525970 0.661587 0.778887 0.874171 0.944292 0.986783 0.999943 0.982927 0.935799 0.859562 0.756163 0.628456 0.480152 0.315716 0.140249 0.040650 0.221074 0.394980 0.556407 0.699676 0.819599 0.911681 0.972300 0.998871 0.989968 0.945417 0.866345 0.755176 0.615585 0.452403 0.271459 0.079396 0.116561 0.308877 0.489987 0.652605 0.790017 0.896380 0.966983 0.998475 0.989053 0.938577 0.848631 0.722508 0.565119 0.382827 0.183208 0.025228 0.233417 0.432109 0.612284 0.765579 0.884683 0.963709 0.998510 0.986922 0.928927 0.826712 0.684629 0.509045 0.308081 0.091269 0.130883 0.347399 0.547362 0.720483 0.857643 0.951390 0.996377 0.989700 0.931117 0.823130 0.670929 0.482181 0.266679 0.035864 0.197768 0.421332 0.622256 0.789020 0.911812 0.983161 0.998407 0.956058 0.857950 0.709234 0.518140 0.295575 0.054540 0.190632 0.425084 0.634361 0.805305 0.926902 0.991041 0.993083 0.932255 0.811782 0.638787 0.423918 0.180733 0.075106 0.326848 0.557717 0.752059 0.896412 0.980484 0.997934 0.946897 0.830222 0.655383 0.434061 0.181411 0.084925 0.346049 0.583123 0.778738 0.918242 0.990856 0.990578 0.916729 0.774127 0.572850 0.327584 0.056600 0.219555 0.479625 0.703264 0.872650 0.973965 0.998559 0.943766 0.813243 0.616811 0.369795 0.091884 0.194395 0.465473 0.698700 0.874239 0.976813 0.997092 0.932615 0.788145 0.575415 0.312243 0.021115 0.272699 0.543321 0.766556 0.922076 0.995342 0.979031 0.873850 0.688633 0.439698 0.149482 0.155422 0.446662 0.696770 0.881778 0.983562 0.991701 0.904629 0.729958 0.483928 0.189974 0.123430 0.425493 0.686120 0.878951
1.000000 1.000000 1.000000 1.000000 1.000000 1.000000 1.000000 1.000000 1.000000 1.000000 1.000000 1.000000 1.000000 1.000000 1.000000 1.000000 1.000000 1.000000 1.000000 1.000000 1.000000 1.000000 1.000000 1.000000 1.000000 1.000000 1.000000 1.000000 1.000000 1.000000 1.000000 1.000000 1.000000 1.000000 1.000000 1.000000 1.000000 1.000000 1.000000 1.000000 1.000000 1.000000 1.000000 1.000000 1.000000 1.000000 1.000000 1.000000 1.000000 1.000000 1.000000 1.000000 0.835646 0.835646 0.835646 0.835646 0.835646 0.835646 0.835646 0.813208 0.813208 0.813208 0.813208 0.813208 0.813208 0.813208 0.813208 0.813208 0.813208 0.813208 0.813208 0.813208 0.813208 0.813208 0.813208 0.813208 0.813208 0.813208 0.813208 0.813208 0.813208 0.813208 0.813208 0.813208 0.813208 0.813208 0.813208 0.813208 0.813208 0.813208 0.813208 0.813208 0.813208 0.813208 0.813208 0.813208 0.813208 0.813208 0.813208 0.813208 0.813208 0.813208 0.813208 0.952829 0.953468 0.945768 0.944637 0.942868 0.939682 0.935200 0.934746 0.936108 0.936314 0.936949 0.939130 0.940189 0.941916 0.943171 0.944060 0.944912 0.952996 0.956638 0.956261 0.955825 0.951295 0.957962 0.956019 0.955855 0.956660 0.956970 0.957690 0.957563 0.957389 0.956832 0.955651 0.956387 0.956239 0.955503 0.954454 0.952550 0.952548 0.952094 0.952091 0.953058 0.953945 0.954587 0.955101 0.955057 0.955246 0.955227 0.955126 0.950050 0.950083 0.943666 0.944372 0.945563 0.945259 0.944189 0.942785 0.942833 0.942690 0.942594 0.942383 0.942612 0.923827 0.923254 0.923286 0.923510 0.916266 0.905769 0.899143 0.892969 0.893885 0.897781 0.902570 0.902688 0.899457 0.898624 0.882260 0.886023 0.873635 0.870568 0.859417 0.869759 0.871962 0.873231 0.868443 0.867822 0.866592 0.864478 0.855931 0.859967 0.860886 0.856786 0.853385 0.851154 0.849730 0.851105 0.855936 0.852145 0.847580 0.844900 0.833801 0.824617 0.823411 0.826000 0.833814 0.845800 0.846265 0.845642 0.838113 0.834247 0.827188 0.821053 0.818030 0.819893 0.817171 0.821139 0.819776 0.826256 0.816380 0.812117 0.817274 0.827096 0.833156 0.835983 0.838412 0.836424 0.832674 0.813100 0.813765 0.806968 0.758620 0.761847 0.747443 0.747215 0.737337 0.736026 0.733439 0.733746 0.728025 0.716852 0.728705 0.722676 0.692995 0.700333 0.693983 0.683805 0.661684 0.665223 0.679527 0.687783 0.686856 0.693601 0.680960 0.679812 0.692721 0.693857 0.701303 0.697118 0.695125 0.687903 0.689644 0.679046 0.677093 0.669826 0.668852 0.669618 0.666046 0.654384 0.662242 0.659400 0.655861 0.647308 0.605871 0.572895 0.551146 0.544457 0.526272 0.499261 0.517311 0.525906 0.507602 0.497214 0.477804 0.435533 0.426406 0.424553 0.395187 0.382201 0.360657 0.329503 0.329206 0.334930 0.342462 0.330853 0.328964 0.313126 0.265870 0.263001 0.225001 0.243324 0.264996 0.251759 0.231616 0.231836 0.246002 0.241178 0.250899 0.249541 0.263340 0.218013 0.163900 0.182346 0.178317 0.191833 0.178124 0.150540 0.176561 0.167237 0.176851 0.179390 0.142738 0.110604 0.089758 0.064613 0.071177 0.096076 0.111020 0.104764 0.085247 -0.003666 0.027547 0.052134 0.052134 0.052134 0.052134 0.052134 0.052134 0.052134 0.052134 0.052134 0.052134 0.052134 -0.008181 -0.008181 -0.008181 -0.008181 -0.008181 -0.008181 -0.008181 -0.008181 -0.008181 -0.008181 -0.008181 -0.008181 -0.008181 -0.008181 -0.008181 -0.008181 -0.008181 -0.008181 -0.008181
0.000000 0.000000 0.000000 0.000000 0.000000 0.000000 0.000000 0.000000 0.000000 0.000000 0.000000 0.000000 0.000000 0.000000 0.000000 0.000000 0.000000 0.000000 0.000000 0.000000 0.000000 0.000000 0.000000 0.000000 0.000000 0.000000 0.000000 0.000000 0.000000 0.000000 0.000000 0.000000 0.000000 0.000000 0.000000 0.000000 0.000000 0.000000 0.000000 0.000000 0.000000 0.000000 0.000000 0.000000 0.000000 0.000000 0.000000 0.000000 0.000000 0.000000 0.000000 0.000000 0.173422 0.173422 0.173422 0.173422 0.173422 0.173422 0.173422 0.191565 0.191565 0.191565 0.191565 0.191565 0.191565 0.191565 0.191565 0.191565 0.191565 0.191565 0.191565 0.191565 0.191565 0.191565 0.191565 0.191565 0.191565 0.191565 0.191565 0.191565 0.191565 0.191565 0.191565 0.191565 0.191565 0.191565 0.191565 0.191565 0.191565 0.191565 0.191565 0.191565 0.191565 0.191565 0.191565 0.191565 0.191565 0.191565 0.191565 0.191565 0.191565 0.191565 0.191565 0.219529 0.219529 0.219529 0.219529 0.219529 0.219529 0.219529 0.219529 0.219529 0.219529 0.219529 0.219529 0.219529 0.219529 0.219529 0.219529 0.219529 0.219529 0.219529 0.219529 0.219529 0.219529 0.219529 0.219529 0.219529 0.219529 0.219529 0.219529 0.219529 0.219529 0.219529 0.237356 0.237356 0.237356 0.237356 0.237356 0.237356 0.237356 0.237356 0.237356 0.237356 0.237356 0.237356 0.237356 0.237356 0.237356 0.237356 0.237356 0.237356 0.237356 0.237356 0.237356 0.237356 0.237356 0.237356 0.244339 0.244339 0.244339 0.244339 0.244339 0.244339 0.244339 0.244339 0.244339 0.244339 0.244339 0.244339 0.244339 0.244339 0.244339 0.244339 0.244339 0.244339 0.244339 0.244339 0.244339 0.248069 0.248069 0.248069 0.248069 0.248069 0.248069 0.248069 0.248069 0.248069 0.248069 0.248069 0.248069 0.248069 0.248069 0.248069 0.248069 0.248069 0.248069 0.248069 0.248069 0.248069 0.248069 0.248069 0.248069 0.248069 0.248069 0.248069 0.248069 0.248069 0.248069 0.248069 0.248069 0.248069 0.248069 0.248069 0.248069 0.248069 0.256074 0.256074 0.256074 0.256074 0.256074 0.256074 0.256074 0.256074 0.256074 0.256074 0.256074 0.256074 0.256074 0.256074 0.256074 0.256074 0.256074 0.256074 0.256074 0.256074 0.256074 0.256074 0.256074 0.256074 0.256074 0.256074 0.256074 0.256074 0.256074 0.256074 0.256074 0.256074 0.256074 0.256074 0.256074 0.256074 0.256074 0.256074 0.256074 0.256074 0.256074 0.256074 0.256074 0.256074 0.256074 0.260378 0.260378 0.260378 0.260378 0.260378 0.260378 0.260378 0.260378 0.260378 0.260378 0.260378 0.260378 0.260378 0.256074 0.256074 0.256074 0.256074 0.256074 0.256074 0.256074 0.256074 0.256074 0.256074 0.256074 0.256074 0.256074 0.260378 0.260378 0.260378 0.260378 0.260378 0.260378 0.260378 0.260378 0.260378 0.260378 0.260378 0.260378 0.251976 0.251976 0.251976 0.251976 0.251976 0.251976 0.251976 0.251976 0.251976 0.251976 0.251976 0.251976 0.256074 0.256074 0.256074 0.256074 0.256074 0.256074 0.256074 0.256074 0.256074 0.256074 0.256074 0.251976 0.251976 0.251976 0.251976 0.251976 0.251976 0.251976 0.251976 0.251976 0.251976 0.251976 0.248069 0.248069 0.248069 0.248069 0.248069 0.248069 0.248069 0.248069 0.248069 0.248069 0.248069 0.256074 0.256074 0.256074 0.256074 0.256074 0.256074 0.256074 0.256074 0.256074 0.256074 0.256074 0.256074 0.256074 0.256074 0.256074 0.256074 0.256074 0.256074 0.256074
