# Output from CTFFind version 4.1.9, run on 2019-11-02 17:50:32
# Input file: stack16_bm3d_averaged_1_1.0_0_3000_half.mrc ; Number of micrographs: 1
# Pixel size: 3.000 Angstroms ; acceleration voltage: 300.0 keV ; spherical aberration: 0.00 mm ; amplitude contrast: 0.07
# Box size: 512 pixels ; min. res.: 30.0 Angstroms ; max. res.: 5.0 Angstroms ; min. def.: 5000.0 um; max. def. 50000.0 um; num. frames averaged: 1
# 6 lines per micrograph: #1 - spatial frequency (1/Angstroms); #2 - 1D rotational average of spectrum (assuming no astigmatism); #3 - 1D rotational average of spectrum; #4 - CTF fit; #5 - cross-correlation between spectrum and CTF fit; #6 - 2sigma of expected cross correlation of noise
0.000000 0.000651 0.001302 0.001953 0.002604 0.003255 0.003906 0.004557 0.005208 0.005859 0.006510 0.007161 0.007812 0.008464 0.009115 0.009766 0.010417 0.011068 0.011719 0.012370 0.013021 0.013672 0.014323 0.014974 0.015625 0.016276 0.016927 0.017578 0.018229 0.018880 0.019531 0.020182 0.020833 0.021484 0.022135 0.022786 0.023438 0.024089 0.024740 0.025391 0.026042 0.026693 0.027344 0.027995 0.028646 0.029297 0.029948 0.030599 0.031250 0.031901 0.032552 0.033203 0.033854 0.034505 0.035156 0.035807 0.036458 0.037109 0.037760 0.038411 0.039062 0.039714 0.040365 0.041016 0.041667 0.042318 0.042969 0.043620 0.044271 0.044922 0.045573 0.046224 0.046875 0.047526 0.048177 0.048828 0.049479 0.050130 0.050781 0.051432 0.052083 0.052734 0.053385 0.054036 0.054688 0.055339 0.055990 0.056641 0.057292 0.057943 0.058594 0.059245 0.059896 0.060547 0.061198 0.061849 0.062500 0.063151 0.063802 0.064453 0.065104 0.065755 0.066406 0.067057 0.067708 0.068359 0.069010 0.069661 0.070312 0.070964 0.071615 0.072266 0.072917 0.073568 0.074219 0.074870 0.075521 0.076172 0.076823 0.077474 0.078125 0.078776 0.079427 0.080078 0.080729 0.081380 0.082031 0.082682 0.083333 0.083984 0.084635 0.085286 0.085938 0.086589 0.087240 0.087891 0.088542 0.089193 0.089844 0.090495 0.091146 0.091797 0.092448 0.093099 0.093750 0.094401 0.095052 0.095703 0.096354 0.097005 0.097656 0.098307 0.098958 0.099609 0.100260 0.100911 0.101562 0.102214 0.102865 0.103516 0.104167 0.104818 0.105469 0.106120 0.106771 0.107422 0.108073 0.108724 0.109375 0.110026 0.110677 0.111328 0.111979 0.112630 0.113281 0.113932 0.114583 0.115234 0.115885 0.116536 0.117188 0.117839 0.118490 0.119141 0.119792 0.120443 0.121094 0.121745 0.122396 0.123047 0.123698 0.124349 0.125000 0.125651 0.126302 0.126953 0.127604 0.128255 0.128906 0.129557 0.130208 0.130859 0.131510 0.132161 0.132812 0.133464 0.134115 0.134766 0.135417 0.136068 0.136719 0.137370 0.138021 0.138672 0.139323 0.139974 0.140625 0.141276 0.141927 0.142578 0.143229 0.143880 0.144531 0.145182 0.145833 0.146484 0.147135 0.147786 0.148438 0.149089 0.149740 0.150391 0.151042 0.151693 0.152344 0.152995 0.153646 0.154297 0.154948 0.155599 0.156250 0.156901 0.157552 0.158203 0.158854 0.159505 0.160156 0.160807 0.161458 0.162109 0.162760 0.163411 0.164062 0.164714 0.165365 0.166016 0.166667 0.167318 0.167969 0.168620 0.169271 0.169922 0.170573 0.171224 0.171875 0.172526 0.173177 0.173828 0.174479 0.175130 0.175781 0.176432 0.177083 0.177734 0.178385 0.179036 0.179688 0.180339 0.180990 0.181641 0.182292 0.182943 0.183594 0.184245 0.184896 0.185547 0.186198 0.186849 0.187500 0.188151 0.188802 0.189453 0.190104 0.190755 0.191406 0.192057 0.192708 0.193359 0.194010 0.194661 0.195312 0.195964 0.196615 0.197266 0.197917 0.198568 0.199219 0.199870 0.200521 0.201172 0.201823 0.202474 0.203125 0.203776 0.204427 0.205078 0.205729 0.206380 0.207031 0.207682 0.208333 0.208984 0.209635 0.210286 0.210938 0.211589 0.212240 0.212891 0.213542 0.214193 0.214844 0.215495 0.216146 0.216797 0.217448 0.218099 0.218750 0.219401 0.220052 0.220703 0.221354 0.222005 0.222656 0.223307 0.223958 0.224609 0.225260 0.225911 0.226562 0.227214 0.227865 0.228516 0.229167 0.229818 0.230469 0.231120 0.231771 0.232422 0.233073 0.233724 0.234375 0.235026 0.235677
       0.34395        0.34395        0.34395        0.34395        0.34395        0.34395        0.34395        0.34395        0.34395        0.34395        0.34395        0.34395        0.34395        0.34395        0.34395        0.34395        0.34395        0.34395        0.34395        0.34395        0.34395        0.34395        0.34395        0.34395        0.34395        0.34395        0.34395        0.34395        0.34395        0.34395        0.34395        0.34395        0.34395        0.34395        0.34395        0.34395        0.34395        0.34395        0.34395        0.34395        0.34395        0.34395        0.34395        0.34395        0.34395        0.34395        0.34395        0.34395        0.34395        0.34395        0.34395        0.48998        0.70467        0.45706       -0.10815       -0.41437       -0.57018       -0.65931       -0.74483       -0.76042       -0.86918       -0.91339       -0.76110       -0.92477       -0.87149       -1.02474       -1.09456       -0.98866       -0.96003       -0.88375       -0.86185       -0.75039       -0.64108       -0.49928       -0.42190       -0.21851       -0.11907       -0.02451        0.20306        0.24383        0.30996        0.38651        0.43968        0.51719        0.58203        0.59880        0.59410        0.50220        0.54725        0.48574        0.39129        0.32639        0.20846        0.17496        0.10191       -0.06286       -0.11379       -0.09165        0.01008       -0.01730        0.00945        0.02967        0.21038        0.21923        0.38997        0.45871        0.56384        0.70451        0.76401        0.72861        0.70957        0.70781        0.58714        0.54412        0.40079        0.27570        0.19507        0.14427        0.06692        0.02316        0.02451        0.06235        0.08100        0.27616        0.41851        0.50394        0.58719        0.64005        0.70752        0.66161        0.65180        0.67385        0.61175        0.48078        0.28468        0.23364        0.20473        0.13132        0.04832        0.09371        0.12089        0.25056        0.34163        0.41623        0.50363        0.54281        0.66467        0.60976        0.55542        0.50731        0.36555        0.20878        0.21089        0.15399        0.11580        0.11950        0.21282        0.25657        0.36433        0.44530        0.44024        0.56731        0.51421        0.44685        0.45371        0.38632        0.32393        0.27720        0.21900        0.23687        0.21187        0.21258        0.32569        0.45103        0.49059        0.48136        0.55262        0.49746        0.45762        0.39747        0.29233        0.22504        0.23358        0.24632        0.26725        0.27005        0.32694        0.44251        0.49840        0.48885        0.45813        0.41954        0.38778        0.36255        0.25127        0.23129        0.24899        0.29550        0.35454        0.36582        0.39647        0.40870        0.44598        0.37308        0.34774        0.31370        0.30516        0.26703        0.26087        0.31436        0.34836        0.41730        0.41853        0.39910        0.39518        0.40707        0.35005        0.28769        0.29244        0.27616        0.31049        0.36043        0.36594        0.41612        0.36231        0.36580        0.38932        0.34399        0.31314        0.28216        0.29559        0.34010        0.33353        0.32638        0.37690        0.39615        0.33758        0.35401        0.29691        0.30894        0.29150        0.28155        0.30254        0.33050        0.38398        0.36803        0.34985        0.33111        0.28848        0.27791        0.29856        0.28345        0.31443        0.37149        0.39524        0.33740        0.31791        0.31344        0.29840        0.28634        0.27993        0.29996        0.34235        0.33631        0.34761        0.32076        0.34475        0.32454        0.29115        0.31328        0.32048        0.33093        0.33342        0.31676        0.31573        0.30773        0.33225        0.31845        0.33741        0.39293        0.34131        0.36146        0.32260        0.31316        0.28851        0.31203        0.28949        0.31106        0.32144        0.35402        0.36642        0.31646        0.31911        0.31142        0.29799        0.29428        0.28906        0.33511        0.33859        0.35989        0.34157        0.32711        0.25784        0.26851        0.31313        0.35420        0.31536        0.29995        0.28939        0.29150        0.32569        0.30698        0.30362        0.33273        0.34308        0.31755        0.24710        0.28700        0.28673        0.28846        0.31883        0.32426        0.35090        0.34003        0.28171        0.26586        0.29395        0.26418        0.29084        0.27456        0.24705        0.26626        0.24686        0.27758        0.27793        0.27610        0.27071        0.31358        0.32939        0.31889        0.29638        0.31162        0.24850        0.27622        0.25574        0.33191        0.34318        0.23632        0.26296        0.28554        0.25047        0.24400        0.30097        0.22929        0.14023        0.16756        0.24321        0.27275        0.23643        0.15376        0.03380       -0.39668       -0.76103
3.060287 3.022261 2.984479 2.946941 2.909648 2.872599 2.835794 2.799233 2.762917 2.726845 2.691017 2.655433 2.620093 2.584998 2.550147 2.515540 2.481178 2.447059 2.413185 2.379556 2.346170 2.313029 2.280132 2.247479 2.215070 2.182906 2.150986 2.119310 2.087878 2.056691 2.025748 1.995049 1.964594 1.934384 1.904417 1.874695 1.845218 1.815984 1.786995 1.758250 1.729749 1.701493 1.673480 1.645713 1.618189 1.590909 1.563874 1.537083 1.510536 1.484233 1.458175 1.514254 1.705291 1.616331 0.971556 0.682427 0.478786 0.434790 0.322158 0.267382 0.201180 0.022964 0.196571 0.081875 -0.005320 -0.059667 -0.195644 -0.150432 -0.088995 -0.091589 -0.097039 0.010726 0.032688 0.234014 0.152295 0.365506 0.446183 0.475991 0.716345 0.701243 0.711576 0.840224 0.823463 0.855319 0.924386 0.896406 0.942610 0.753542 0.837865 0.841791 0.621265 0.610727 0.458970 0.440261 0.386223 0.208251 0.118899 0.100137 0.206724 0.146036 0.192486 0.111768 0.314251 0.288347 0.455807 0.417779 0.581922 0.647851 0.769568 0.692647 0.664120 0.673309 0.536370 0.505488 0.370699 0.295254 0.118699 0.147003 0.001115 -0.012507 -0.038122 -0.028505 -0.000197 0.037414 0.275721 0.331040 0.382461 0.399234 0.471303 0.532242 0.457353 0.507286 0.401647 0.390071 0.154652 0.065676 0.071419 -0.001370 -0.122644 -0.041945 -0.111344 0.016642 0.136327 0.156909 0.253884 0.259261 0.385748 0.461115 0.356044 0.387349 0.283376 0.126528 0.047943 0.051987 0.014175 0.002726 0.004303 0.107380 0.133141 0.266649 0.238004 0.305095 0.374629 0.234887 0.243101 0.219678 0.132760 0.081077 0.054075 0.024744 0.039987 -0.013888 0.029322 0.186179 0.224758 0.252017 0.278230 0.235212 0.238310 0.150893 0.104794 -0.025623 -0.014368 -0.007373 0.018007 0.005478 0.027968 0.106006 0.184309 0.203273 0.218800 0.138111 0.146189 0.079410 0.056014 -0.055770 -0.011831 -0.007251 0.054105 0.065310 0.081341 0.152202 0.087130 0.167134 0.067996 0.052029 0.044040 0.027285 0.001548 0.010988 0.056328 0.084429 0.133349 0.142569 0.065850 0.130497 0.098483 0.016942 0.006840 0.004366 -0.006527 0.056785 0.059071 0.097543 0.098515 0.074276 0.063072 0.080888 0.030716 0.010560 -0.009601 0.009940 0.060280 0.026817 0.038527 0.082497 0.083329 0.056515 0.032965 0.005859 0.014083 -0.005466 -0.015185 0.014260 0.050665 0.103044 0.058963 0.059823 0.039750 -0.014099 -0.001126 0.013448 0.009157 0.025088 0.106576 0.052891 0.018414 0.042955 0.002136 0.023878 -0.010820 -0.006786 0.021951 0.063274 0.030561 0.044986 0.029259 0.050062 0.025521 -0.005208 0.022692 0.040688 0.034015 0.027703 0.023116 0.002266 -0.005645 0.028385 0.011984 0.043458 0.079491 0.047545 0.024998 0.015160 -0.001287 -0.001208 0.006827 0.001132 0.011197 0.002480 0.085109 0.055893 0.030985 0.035967 0.003302 0.013167 0.010592 -0.005517 0.054448 0.061756 0.087709 0.054994 0.051915 -0.026644 0.017079 0.036452 0.081300 0.026956 0.038036 0.010944 0.009952 0.048973 0.044962 0.033553 0.059546 0.075943 0.061693 -0.019202 0.016746 0.047533 0.023554 0.043072 0.076631 0.080455 0.068524 0.015797 0.002592 0.014691 -0.004340 0.019336 -0.016721 -0.028903 -0.011267 -0.046356 -0.002636 -0.007953 0.004599 -0.069645 -0.002829 0.016758 0.003751 -0.029946 0.030674 -0.091775 -0.016335 -0.041061 0.030747 0.065611 -0.099274 -0.012546 0.047407 0.014999 -0.043117 0.047558 0.030209 -0.006876 -0.040237 0.067421 0.235899 0.215818 0.117090 0.032310 -0.668531
0.072396 0.073046 0.074995 0.078242 0.082787 0.088627 0.095762 0.104187 0.113899 0.124893 0.137163 0.150699 0.165492 0.181529 0.198794 0.217271 0.236935 0.257762 0.279720 0.302775 0.326886 0.352005 0.378080 0.405050 0.432846 0.461393 0.490605 0.520389 0.550641 0.581247 0.612082 0.643012 0.673889 0.704557 0.734847 0.764577 0.793557 0.821583 0.848442 0.873911 0.897756 0.919737 0.939604 0.957105 0.971979 0.983966 0.992804 0.998232 0.999997 0.997849 0.991551 0.980879 0.965624 0.945602 0.920651 0.890638 0.855463 0.815064 0.769419 0.718554 0.662543 0.601513 0.535648 0.465194 0.390459 0.311816 0.229705 0.144634 0.057177 0.032024 0.122263 0.212773 0.302732 0.391265 0.477456 0.560352 0.638977 0.712340 0.779451 0.839332 0.891035 0.933657 0.966356 0.988371 0.999038 0.997809 0.984273 0.958165 0.919392 0.868040 0.804389 0.728924 0.642341 0.545550 0.439677 0.326058 0.206229 0.081913 0.044996 0.172464 0.298340 0.420393 0.536349 0.643939 0.740940 0.825228 0.894827 0.947966 0.983126 0.999092 0.995001 0.970384 0.925199 0.859863 0.775269 0.672793 0.554292 0.422084 0.278922 0.127946 0.027376 0.183316 0.335976 0.481378 0.615574 0.734755 0.835366 0.914226 0.968639 0.996499 0.996389 0.967661 0.910494 0.825938 0.715926 0.583256 0.431550 0.265177 0.089142 0.091042 0.269524 0.440301 0.597412 0.735166 0.848346 0.932437 0.983817 0.999943 0.979495 0.922491 0.830345 0.705880 0.553283 0.377998 0.186564 0.013609 0.214505 0.407819 0.585296 0.739097 0.862158 0.948543 0.993757 0.995015 0.951448 0.864224 0.736582 0.573767 0.382859 0.172511 0.047418 0.266300 0.473246 0.657649 0.809745 0.921158 0.985395 0.998271 0.958230 0.866532 0.727293 0.547376 0.336106 0.104838 0.133620 0.365693 0.577803 0.757186 0.892680 0.975465 0.999690 0.962949 0.866554 0.715597 0.518760 0.287886 0.037325 0.216917 0.458179 0.670244 0.838450 0.950746 0.998614 0.977792 0.888722 0.736674 0.531548 0.287305 0.021092 0.247914 0.499870 0.715735 0.878734 0.975731 0.998355 0.943814 0.815300 0.621929 0.378208 0.103028 0.181723 0.452878 0.687867 0.866629 0.973385 0.998126 0.937646 0.796040 0.584572 0.320897 0.027696 0.269219 0.543133 0.768857 0.925077 0.996469 0.975298 0.862389 0.667296 0.407640 0.107651 0.204002 0.496930 0.741946 0.914061 0.995095 0.975738 0.856753 0.649187 0.373505 0.057721 0.265365 0.561518 0.798718 0.950676 0.999869 0.939713 0.775584 0.524550 0.213766 0.122323 0.445733 0.719207 0.910557 0.996566 0.965958 0.821048 0.577829 0.264400 0.082110 0.419858 0.707305 0.908370 0.997081 0.961091 0.803603 0.543351 0.212582 0.146762 0.488270 0.767043 0.945666 0.999368 0.919660 0.715882 0.414377 0.055301 0.312577 0.638419 0.876374 0.992151 0.968148 0.806363 0.528580 0.173687 0.207564 0.559714 0.830665 0.979480 0.982764 0.838591 0.567298 0.208894 0.182603 0.547200 0.828093 0.980636 0.979632 0.823771 0.536375 0.162218 0.239218 0.603083 0.869636 0.994182 0.954807 0.756535 0.431074 0.032057 0.373577 0.716718 0.937929 0.997911 0.884777 0.616731 0.239496 0.181189 0.570844 0.859446 0.994102 0.949050 0.730912 0.378149 0.045348 0.461626 0.792921 0.976302 0.975846 0.790049 0.452812 0.027630 0.404056 0.758385 0.965411 0.983172 0.806550 0.469033 0.036794 0.404016 0.764268 0.969995 0.977818 0.784482 0.428333 0.017870 0.461500 0.809214 0.986654 0.954693 0.718471 0.327128 0.135950 0.570662
1.000000 1.000000 1.000000 1.000000 1.000000 1.000000 1.000000 1.000000 1.000000 1.000000 1.000000 1.000000 1.000000 1.000000 1.000000 1.000000 1.000000 1.000000 1.000000 1.000000 1.000000 1.000000 1.000000 1.000000 1.000000 1.000000 1.000000 1.000000 1.000000 1.000000 1.000000 1.000000 1.000000 1.000000 1.000000 1.000000 1.000000 1.000000 1.000000 1.000000 1.000000 1.000000 1.000000 1.000000 1.000000 1.000000 1.000000 1.000000 1.000000 1.000000 1.000000 1.000000 0.933976 0.933976 0.933976 0.933976 0.933976 0.933976 0.933976 0.933976 0.933976 0.933976 0.933976 0.933976 0.933976 0.933976 0.933976 0.933976 0.933976 0.933976 0.933976 0.933976 0.933976 0.933976 0.933976 0.933976 0.933976 0.933976 0.933976 0.933976 0.933976 0.933976 0.933976 0.933976 0.933976 0.923910 0.925367 0.928299 0.929356 0.929320 0.928871 0.928560 0.928773 0.929671 0.931968 0.948550 0.950018 0.950591 0.951890 0.952134 0.954657 0.952900 0.952652 0.963224 0.962016 0.962714 0.955706 0.957314 0.956375 0.955430 0.955951 0.956219 0.954261 0.952088 0.950377 0.949725 0.949344 0.951116 0.951596 0.951548 0.953033 0.952987 0.952701 0.949300 0.947904 0.949381 0.951452 0.950608 0.956322 0.956141 0.964170 0.964942 0.963509 0.963420 0.963618 0.963817 0.952696 0.945796 0.940049 0.928120 0.918540 0.916506 0.919483 0.921409 0.920585 0.916241 0.915125 0.912512 0.907164 0.906294 0.906569 0.908234 0.905209 0.901754 0.885289 0.885034 0.887471 0.886503 0.884380 0.876467 0.872108 0.872745 0.875911 0.873313 0.869851 0.885796 0.880790 0.885792 0.888730 0.891987 0.895813 0.892142 0.891437 0.887775 0.884112 0.879353 0.880713 0.868916 0.871840 0.866070 0.856286 0.848823 0.851982 0.861497 0.869544 0.877607 0.876598 0.876712 0.875883 0.866985 0.868619 0.860955 0.862033 0.867465 0.873703 0.869843 0.866860 0.871212 0.869265 0.872030 0.873336 0.869988 0.868233 0.859014 0.858735 0.861784 0.878738 0.879176 0.867610 0.860952 0.850250 0.856285 0.859155 0.858691 0.860612 0.850016 0.850938 0.840847 0.830981 0.832812 0.837510 0.832126 0.834298 0.831872 0.835406 0.837849 0.836019 0.830243 0.828892 0.830925 0.803622 0.810489 0.813477 0.810116 0.814409 0.806176 0.800025 0.794688 0.793988 0.789850 0.802200 0.800341 0.768152 0.755024 0.762839 0.749109 0.740227 0.735023 0.735258 0.697822 0.673433 0.644911 0.639705 0.629428 0.628336 0.629405 0.617438 0.594463 0.581184 0.582823 0.601299 0.601751 0.575430 0.575234 0.569031 0.563336 0.558502 0.561774 0.561123 0.563736 0.567629 0.535446 0.530713 0.536853 0.509756 0.511313 0.510954 0.499500 0.468330 0.472861 0.472179 0.492568 0.508170 0.478166 0.476668 0.483961 0.497662 0.510154 0.509721 0.496930 0.480080 0.485618 0.460664 0.439637 0.455861 0.470603 0.463950 0.478338 0.471218 0.497696 0.491371 0.483466 0.511246 0.527464 0.525475 0.516038 0.530045 0.515254 0.518704 0.502344 0.464470 0.477736 0.465773 0.409261 0.395183 0.408785 0.392853 0.390209 0.365029 0.368953 0.345026 0.313147 0.321317 0.313931 0.280676 0.247779 0.250941 0.252980 0.221034 0.193394 0.215670 0.166862 0.160462 0.177668 0.185408 0.189445 0.177352 0.200929 0.200929 0.200929 0.200929 0.200929 0.200929 0.200929 0.200929 0.200929 0.200929 0.200929 0.200929 0.200929 0.200929 0.225988 0.225988 0.225988 0.225988 0.225988 0.225988 0.225988 0.225988 0.225988 0.225988 0.225988 0.225988
0.000000 0.000000 0.000000 0.000000 0.000000 0.000000 0.000000 0.000000 0.000000 0.000000 0.000000 0.000000 0.000000 0.000000 0.000000 0.000000 0.000000 0.000000 0.000000 0.000000 0.000000 0.000000 0.000000 0.000000 0.000000 0.000000 0.000000 0.000000 0.000000 0.000000 0.000000 0.000000 0.000000 0.000000 0.000000 0.000000 0.000000 0.000000 0.000000 0.000000 0.000000 0.000000 0.000000 0.000000 0.000000 0.000000 0.000000 0.000000 0.000000 0.000000 0.000000 0.000000 0.209657 0.209657 0.209657 0.209657 0.209657 0.209657 0.209657 0.209657 0.209657 0.209657 0.209657 0.209657 0.209657 0.209657 0.209657 0.209657 0.209657 0.209657 0.209657 0.209657 0.209657 0.209657 0.209657 0.209657 0.209657 0.209657 0.209657 0.209657 0.209657 0.209657 0.209657 0.209657 0.209657 0.244339 0.244339 0.244339 0.244339 0.244339 0.244339 0.244339 0.244339 0.244339 0.244339 0.244339 0.244339 0.244339 0.244339 0.244339 0.244339 0.244339 0.244339 0.244339 0.244339 0.244339 0.244339 0.244339 0.244339 0.244339 0.260378 0.260378 0.260378 0.260378 0.260378 0.260378 0.260378 0.260378 0.260378 0.260378 0.260378 0.260378 0.260378 0.260378 0.260378 0.260378 0.260378 0.260378 0.260378 0.260378 0.269680 0.269680 0.269680 0.269680 0.269680 0.269680 0.269680 0.269680 0.269680 0.269680 0.269680 0.269680 0.269680 0.269680 0.269680 0.269680 0.269680 0.269680 0.269680 0.269680 0.269680 0.269680 0.269680 0.269680 0.269680 0.269680 0.269680 0.269680 0.269680 0.269680 0.269680 0.269680 0.269680 0.280056 0.280056 0.280056 0.280056 0.280056 0.280056 0.280056 0.280056 0.280056 0.280056 0.280056 0.280056 0.280056 0.280056 0.280056 0.280056 0.280056 0.280056 0.280056 0.280056 0.280056 0.280056 0.280056 0.280056 0.280056 0.280056 0.280056 0.274721 0.274721 0.274721 0.274721 0.274721 0.274721 0.274721 0.274721 0.274721 0.274721 0.274721 0.274721 0.274721 0.285714 0.285714 0.285714 0.285714 0.285714 0.285714 0.285714 0.285714 0.285714 0.285714 0.285714 0.280056 0.280056 0.280056 0.280056 0.280056 0.280056 0.280056 0.280056 0.280056 0.280056 0.280056 0.274721 0.274721 0.274721 0.274721 0.274721 0.274721 0.274721 0.274721 0.274721 0.274721 0.274721 0.280056 0.280056 0.280056 0.280056 0.280056 0.280056 0.280056 0.280056 0.280056 0.280056 0.285714 0.285714 0.285714 0.285714 0.285714 0.285714 0.285714 0.285714 0.285714 0.269680 0.269680 0.269680 0.269680 0.269680 0.269680 0.269680 0.269680 0.269680 0.269680 0.274721 0.274721 0.274721 0.274721 0.274721 0.274721 0.274721 0.274721 0.274721 0.285714 0.285714 0.285714 0.285714 0.285714 0.285714 0.285714 0.285714 0.264906 0.264906 0.264906 0.264906 0.264906 0.264906 0.264906 0.264906 0.264906 0.274721 0.274721 0.274721 0.274721 0.274721 0.274721 0.274721 0.274721 0.269680 0.269680 0.269680 0.269680 0.269680 0.269680 0.269680 0.269680 0.269680 0.269680 0.269680 0.269680 0.269680 0.269680 0.269680 0.269680 0.280056 0.280056 0.280056 0.280056 0.280056 0.280056 0.280056 0.260378 0.260378 0.260378 0.260378 0.260378 0.260378 0.260378 0.260378 0.269680 0.269680 0.269680 0.269680 0.269680 0.269680 0.269680 0.264906 0.264906 0.264906 0.264906 0.264906 0.264906 0.264906 0.264906 0.264906 0.264906 0.264906 0.264906 0.264906 0.264906 0.260378 0.260378 0.260378 0.260378 0.260378 0.260378 0.260378 0.260378 0.260378 0.260378 0.260378 0.260378
