# Output from CTFFind version 4.1.9, run on 2019-11-03 20:10:26
# Input file: stack6_bm3d_averaged_1_7.0_0_3000_half.mrc ; Number of micrographs: 1
# Pixel size: 3.000 Angstroms ; acceleration voltage: 300.0 keV ; spherical aberration: 0.00 mm ; amplitude contrast: 0.07
# Box size: 512 pixels ; min. res.: 30.0 Angstroms ; max. res.: 5.0 Angstroms ; min. def.: 5000.0 um; max. def. 50000.0 um; num. frames averaged: 1
# 6 lines per micrograph: #1 - spatial frequency (1/Angstroms); #2 - 1D rotational average of spectrum (assuming no astigmatism); #3 - 1D rotational average of spectrum; #4 - CTF fit; #5 - cross-correlation between spectrum and CTF fit; #6 - 2sigma of expected cross correlation of noise
0.000000 0.000651 0.001302 0.001953 0.002604 0.003255 0.003906 0.004557 0.005208 0.005859 0.006510 0.007161 0.007812 0.008464 0.009115 0.009766 0.010417 0.011068 0.011719 0.012370 0.013021 0.013672 0.014323 0.014974 0.015625 0.016276 0.016927 0.017578 0.018229 0.018880 0.019531 0.020182 0.020833 0.021484 0.022135 0.022786 0.023438 0.024089 0.024740 0.025391 0.026042 0.026693 0.027344 0.027995 0.028646 0.029297 0.029948 0.030599 0.031250 0.031901 0.032552 0.033203 0.033854 0.034505 0.035156 0.035807 0.036458 0.037109 0.037760 0.038411 0.039062 0.039714 0.040365 0.041016 0.041667 0.042318 0.042969 0.043620 0.044271 0.044922 0.045573 0.046224 0.046875 0.047526 0.048177 0.048828 0.049479 0.050130 0.050781 0.051432 0.052083 0.052734 0.053385 0.054036 0.054688 0.055339 0.055990 0.056641 0.057292 0.057943 0.058594 0.059245 0.059896 0.060547 0.061198 0.061849 0.062500 0.063151 0.063802 0.064453 0.065104 0.065755 0.066406 0.067057 0.067708 0.068359 0.069010 0.069661 0.070312 0.070964 0.071615 0.072266 0.072917 0.073568 0.074219 0.074870 0.075521 0.076172 0.076823 0.077474 0.078125 0.078776 0.079427 0.080078 0.080729 0.081380 0.082031 0.082682 0.083333 0.083984 0.084635 0.085286 0.085938 0.086589 0.087240 0.087891 0.088542 0.089193 0.089844 0.090495 0.091146 0.091797 0.092448 0.093099 0.093750 0.094401 0.095052 0.095703 0.096354 0.097005 0.097656 0.098307 0.098958 0.099609 0.100260 0.100911 0.101562 0.102214 0.102865 0.103516 0.104167 0.104818 0.105469 0.106120 0.106771 0.107422 0.108073 0.108724 0.109375 0.110026 0.110677 0.111328 0.111979 0.112630 0.113281 0.113932 0.114583 0.115234 0.115885 0.116536 0.117188 0.117839 0.118490 0.119141 0.119792 0.120443 0.121094 0.121745 0.122396 0.123047 0.123698 0.124349 0.125000 0.125651 0.126302 0.126953 0.127604 0.128255 0.128906 0.129557 0.130208 0.130859 0.131510 0.132161 0.132812 0.133464 0.134115 0.134766 0.135417 0.136068 0.136719 0.137370 0.138021 0.138672 0.139323 0.139974 0.140625 0.141276 0.141927 0.142578 0.143229 0.143880 0.144531 0.145182 0.145833 0.146484 0.147135 0.147786 0.148438 0.149089 0.149740 0.150391 0.151042 0.151693 0.152344 0.152995 0.153646 0.154297 0.154948 0.155599 0.156250 0.156901 0.157552 0.158203 0.158854 0.159505 0.160156 0.160807 0.161458 0.162109 0.162760 0.163411 0.164062 0.164714 0.165365 0.166016 0.166667 0.167318 0.167969 0.168620 0.169271 0.169922 0.170573 0.171224 0.171875 0.172526 0.173177 0.173828 0.174479 0.175130 0.175781 0.176432 0.177083 0.177734 0.178385 0.179036 0.179688 0.180339 0.180990 0.181641 0.182292 0.182943 0.183594 0.184245 0.184896 0.185547 0.186198 0.186849 0.187500 0.188151 0.188802 0.189453 0.190104 0.190755 0.191406 0.192057 0.192708 0.193359 0.194010 0.194661 0.195312 0.195964 0.196615 0.197266 0.197917 0.198568 0.199219 0.199870 0.200521 0.201172 0.201823 0.202474 0.203125 0.203776 0.204427 0.205078 0.205729 0.206380 0.207031 0.207682 0.208333 0.208984 0.209635 0.210286 0.210938 0.211589 0.212240 0.212891 0.213542 0.214193 0.214844 0.215495 0.216146 0.216797 0.217448 0.218099 0.218750 0.219401 0.220052 0.220703 0.221354 0.222005 0.222656 0.223307 0.223958 0.224609 0.225260 0.225911 0.226562 0.227214 0.227865 0.228516 0.229167 0.229818 0.230469 0.231120 0.231771 0.232422 0.233073 0.233724 0.234375 0.235026 0.235677
       0.33102        0.33102        0.33102        0.33102        0.33102        0.33102        0.33102        0.33102        0.33102        0.33102        0.33102        0.33102        0.33102        0.33102        0.33102        0.33102        0.33102        0.33102        0.33102        0.33102        0.33102        0.33102        0.33102        0.33102        0.33102        0.33102        0.33102        0.33102        0.33102        0.33102        0.33102        0.33102        0.33102        0.33102        0.33102        0.33102        0.33102        0.33102        0.33102        0.33102        0.33102        0.33102        0.33102        0.33102        0.33102        0.33102        0.33102        0.33102        0.33102        0.33102        0.33102        0.59631        0.70984        0.36484        0.17345        0.13862       -0.13002        0.11262        0.04050        0.04311        0.09378        0.30930        0.30856        0.23697        0.14244       -0.03729       -0.01012        0.05124       -0.09235       -0.09867       -0.06941       -0.07685       -0.17698       -0.11319       -0.22257       -0.24139       -0.23913       -0.29818       -0.36957       -0.29894       -0.20755       -0.17291       -0.27948       -0.20366       -0.24504       -0.18640       -0.12517       -0.06713       -0.03844        0.01782        0.06519        0.14956        0.19094        0.23298        0.34630        0.41109        0.36089        0.48174        0.54579        0.55431        0.63082        0.55601        0.58557        0.60321        0.60499        0.59675        0.55935        0.59485        0.54263        0.39799        0.35275        0.37700        0.34441        0.21151        0.20062        0.17129        0.11519        0.11339        0.04078        0.10622        0.08506        0.05101        0.13289        0.18804        0.27594        0.35017        0.36483        0.39590        0.44861        0.48222        0.42221        0.63891        0.54959        0.48237        0.56999        0.50297        0.55668        0.51656        0.38926        0.32688        0.31199        0.26567        0.25568        0.21488        0.19637        0.17303        0.26375        0.24163        0.26338        0.23325        0.27514        0.33740        0.33841        0.45005        0.44520        0.43055        0.41814        0.48068        0.43574        0.41810        0.40681        0.39842        0.33718        0.28449        0.27903        0.26983        0.26864        0.21434        0.20101        0.25100        0.26668        0.28950        0.35202        0.38483        0.42733        0.41529        0.42998        0.48828        0.47307        0.43040        0.38420        0.41790        0.38054        0.33066        0.33988        0.33044        0.27177        0.28423        0.28094        0.25557        0.32092        0.29896        0.31769        0.33731        0.39831        0.42167        0.41260        0.44149        0.39001        0.43237        0.40436        0.33195        0.30020        0.27254        0.28452        0.25601        0.22572        0.31340        0.37520        0.33766        0.30953        0.36563        0.29064        0.34893        0.40188        0.38743        0.36604        0.38103        0.34715        0.36320        0.33657        0.30597        0.28858        0.26782        0.31992        0.33165        0.35031        0.36525        0.38888        0.37282        0.37068        0.32701        0.35639        0.36334        0.34426        0.32961        0.29261        0.28938        0.26989        0.34046        0.33701        0.34711        0.31650        0.34897        0.36935        0.33947        0.35726        0.34816        0.31430        0.31040        0.30945        0.28162        0.27130        0.26193        0.25412        0.27442        0.26718        0.30476        0.27811        0.31912        0.35826        0.26402        0.29659        0.28354        0.24593        0.30055        0.28310        0.28390        0.31012        0.32780        0.32844        0.31679        0.31513        0.31225        0.35651        0.35812        0.30301        0.32824        0.32031        0.37046        0.28188        0.27852        0.29356        0.30768        0.33203        0.36387        0.35837        0.29868        0.23432        0.29823        0.26631        0.25863        0.26026        0.27354        0.30659        0.23728        0.30577        0.33061        0.36637        0.31274        0.31348        0.28076        0.29531        0.29230        0.26356        0.28648        0.27184        0.28875        0.35188        0.34681        0.28598        0.32200        0.33191        0.26344        0.23248        0.18804        0.33018        0.33103        0.35989        0.34316        0.29529        0.23101        0.21975        0.27343        0.26922        0.26967        0.29024        0.29210        0.24602        0.27914        0.27841        0.30979        0.28069        0.27721        0.27313        0.24875        0.22590        0.28209        0.25004        0.21889        0.26615        0.25613        0.26262        0.22466        0.20437        0.27149        0.29521        0.27502        0.19825        0.14648        0.29615        0.22726        0.25403        0.27556        0.17039        0.16494        0.19760        0.24474        0.28818        0.10218       -0.10565       -0.60343       -0.96014
2.411890 2.391461 2.371122 2.350874 2.330716 2.310649 2.290672 2.270786 2.250990 2.231284 2.211669 2.192144 2.172710 2.153367 2.134113 2.114951 2.095878 2.076897 2.058005 2.039205 2.020494 2.001874 1.983345 1.964906 1.946557 1.928299 1.910131 1.892054 1.874067 1.856171 1.838365 1.820650 1.803025 1.785491 1.768047 1.750694 1.733431 1.716258 1.699176 1.682184 1.665283 1.648473 1.631752 1.615123 1.598583 1.582135 1.565776 1.549508 1.533331 1.517244 1.501247 1.859554 2.200356 1.526528 1.329660 1.102228 0.518774 0.932268 0.805174 0.844457 0.700831 1.419431 1.195628 1.211350 0.986007 0.599375 0.470755 0.747572 0.599416 0.279395 0.274298 0.487053 0.244915 0.263089 0.109297 -0.002379 -0.016449 -0.009975 -0.319323 -0.146529 0.011858 0.004450 -0.082863 -0.014219 -0.107514 -0.087676 0.068305 0.194383 0.258058 0.280675 0.383380 0.629161 0.562429 0.665263 0.829038 1.059843 0.804304 1.263671 1.192894 1.268715 1.369424 1.261719 1.164560 1.370094 1.236334 1.349227 1.203745 1.198836 1.220609 0.964227 0.711066 0.748552 0.795302 0.484464 0.443853 0.371545 0.237981 0.197533 0.036285 0.229511 0.173600 0.056675 0.137988 0.236610 0.361702 0.607939 0.610570 0.624084 0.697538 0.880687 0.593384 1.028664 1.051776 0.775246 0.927117 0.769882 0.883414 0.916791 0.649000 0.406683 0.435651 0.382438 0.222115 0.239666 0.164526 -0.014516 0.249455 0.226877 0.260609 0.154430 0.251642 0.333875 0.279030 0.501334 0.603389 0.552170 0.365338 0.653837 0.559737 0.425218 0.538292 0.437317 0.272546 0.316751 0.136724 0.213632 0.026562 0.216289 -0.056512 0.057575 0.064869 0.259047 0.053845 0.399386 0.349480 0.404177 0.383171 0.417287 0.588197 0.409654 0.350086 0.404146 0.199488 0.358231 0.113080 0.268788 0.066135 0.093618 0.083862 0.064248 0.047396 0.159557 0.060382 0.157967 0.241944 0.287187 0.331010 0.265285 0.346416 0.264052 0.293635 0.183641 0.104605 0.019853 -0.009078 0.018325 -0.066689 -0.070125 0.126106 0.218457 0.056317 0.108948 0.126694 0.008992 0.187950 0.257296 0.188657 0.186546 0.131763 0.167189 0.109065 0.099622 0.047178 -0.086157 -0.005127 0.135792 0.048936 0.152446 0.132247 0.221761 0.184792 0.160058 0.108597 0.188930 0.101905 0.142634 0.095641 0.015867 -0.011277 -0.009080 0.130945 0.124993 0.128073 0.060291 0.152729 0.156538 0.048434 0.144145 0.052101 -0.007542 0.027289 0.008036 -0.058546 -0.062849 -0.115094 -0.047509 -0.054557 -0.095020 0.014009 -0.040037 0.050745 0.099862 -0.108434 0.028064 -0.050282 -0.100505 0.047437 -0.029565 -0.064050 0.042255 0.097144 0.030556 0.060141 -0.044078 0.029855 0.194030 0.007937 -0.041194 0.083699 0.042336 0.116249 -0.103632 -0.046971 -0.010046 0.050187 0.057026 0.097204 0.134274 -0.042661 -0.106427 0.008260 -0.063534 -0.066452 -0.047627 -0.049939 0.046601 -0.176392 0.123129 0.119829 0.183683 0.038007 0.043959 0.025394 0.029954 0.091116 -0.034290 0.036859 0.007923 0.059219 0.137659 0.186419 0.043498 0.157709 0.174239 -0.039321 -0.007481 -0.162177 0.230496 0.139661 0.212462 0.167395 0.034511 -0.062380 -0.090181 0.007011 0.007234 -0.015083 0.041367 0.052735 -0.075704 0.011985 0.101061 0.074195 0.042046 0.013316 0.057817 -0.092564 -0.022713 0.051391 -0.021832 -0.104804 0.054305 -0.003746 -0.034441 -0.026609 -0.102466 0.084125 0.125233 0.006359 -0.086422 -0.331823 0.218212 0.511141 0.441318 0.572886 0.270181 0.325084 0.387011 0.514559 0.551929 0.078461 0.044783 -0.915558
0.072396 0.072838 0.074163 0.076371 0.079462 0.083435 0.088289 0.094022 0.100634 0.108122 0.116484 0.125716 0.135815 0.146776 0.158594 0.171262 0.184772 0.199116 0.214282 0.230259 0.247032 0.264586 0.282903 0.301961 0.321739 0.342209 0.363344 0.385111 0.407474 0.430396 0.453833 0.477738 0.502061 0.526747 0.551735 0.576960 0.602354 0.627843 0.653346 0.678779 0.704051 0.729069 0.753731 0.777931 0.801559 0.824499 0.846629 0.867825 0.887956 0.906890 0.924488 0.940610 0.955112 0.967851 0.978680 0.987451 0.994019 0.998237 0.999964 0.999060 0.995388 0.988821 0.979236 0.966518 0.950564 0.931282 0.908590 0.882425 0.852736 0.819493 0.782682 0.742313 0.698416 0.651047 0.600285 0.546238 0.489041 0.428857 0.365881 0.300336 0.232478 0.162594 0.091002 0.018050 0.055883 0.130388 0.205031 0.279348 0.352856 0.425047 0.495396 0.563366 0.628407 0.689964 0.747479 0.800402 0.848190 0.890315 0.926273 0.955588 0.977820 0.992569 0.999485 0.998277 0.988713 0.970632 0.943948 0.908657 0.864842 0.812675 0.752424 0.684454 0.609231 0.527317 0.439375 0.346165 0.248540 0.147440 0.043885 0.061028 0.166143 0.270251 0.372106 0.470437 0.563965 0.651424 0.731572 0.803218 0.865233 0.916578 0.956321 0.983654 0.997916 0.998607 0.985407 0.958192 0.917039 0.862242 0.794319 0.714007 0.622269 0.520285 0.409446 0.291336 0.167716 0.040506 0.088250 0.216406 0.341757 0.462066 0.575119 0.678750 0.770902 0.849658 0.913296 0.960323 0.989521 0.999980 0.991137 0.962795 0.915150 0.848800 0.764752 0.664419 0.549605 0.422480 0.285552 0.141622 0.006269 0.154897 0.300927 0.440980 0.571721 0.689935 0.792613 0.877034 0.940842 0.982127 0.999484 0.992074 0.959665 0.902665 0.822136 0.719788 0.597962 0.459586 0.308120 0.147478 0.018066 0.183983 0.345614 0.498297 0.637510 0.759000 0.858929 0.934004 0.981593 0.999836 0.987727 0.945176 0.873050 0.773168 0.648289 0.502048 0.338864 0.163824 0.017463 0.199040 0.374797 0.538674 0.684877 0.808085 0.903659 0.967832 0.997874 0.992225 0.950588 0.873990 0.764777 0.626575 0.464192 0.283467 0.091080 0.105682 0.299199 0.481803 0.646095 0.785242 0.893285 0.965408 0.998170 0.989698 0.939809 0.850073 0.723801 0.565943 0.382939 0.182460 0.026882 0.235900 0.435226 0.615737 0.768976 0.887568 0.965597 0.998919 0.985421 0.925170 0.820481 0.675864 0.497862 0.294798 0.076395 0.146661 0.363236 0.562304 0.733521 0.867767 0.957665 0.998014 0.986118 0.922006 0.808499 0.651135 0.457938 0.239048 0.006209 0.227834 0.450029 0.647754 0.809529 0.925727 0.989163 0.995583 0.943987 0.836772 0.679681 0.481538 0.253798 0.009912 0.235431 0.467203 0.670938 0.833664 0.944749 0.996643 0.985427 0.911160 0.777971 0.593885 0.370404 0.121820 0.135662 0.384967 0.609279 0.793179 0.923751 0.991510 0.991152 0.922021 0.788260 0.598637 0.366026 0.106581 0.161341 0.418481 0.646035 0.827068 0.947796 0.998685 0.975268 0.878586 0.715243 0.497021 0.240102 0.036101 0.310362 0.561273 0.768927 0.916516 0.991754 0.987952 0.904681 0.747947 0.529842 0.267673 0.017345 0.301778 0.561874 0.775578 0.924413 0.995148 0.981031 0.882517 0.707374 0.470168 0.191118 0.105567 0.393759 0.647693 0.844311 0.965377 0.999256 0.942097 0.798357 0.580554 0.308267 0.006448 0.296823 0.572914 0.795383 0.942524 0.999570 0.960250 0.827572 0.613716 0.339009 0.030078 0.282680 0.568056 0.797160 0.946401 0.999962
1.000000 1.000000 1.000000 1.000000 1.000000 1.000000 1.000000 1.000000 1.000000 1.000000 1.000000 1.000000 1.000000 1.000000 1.000000 1.000000 1.000000 1.000000 1.000000 1.000000 1.000000 1.000000 1.000000 1.000000 1.000000 1.000000 1.000000 1.000000 1.000000 1.000000 1.000000 1.000000 1.000000 1.000000 1.000000 1.000000 1.000000 1.000000 1.000000 1.000000 1.000000 1.000000 1.000000 1.000000 1.000000 1.000000 1.000000 1.000000 1.000000 1.000000 1.000000 1.000000 0.770967 0.770967 0.770967 0.770967 0.770967 0.770967 0.770967 0.759804 0.759804 0.759804 0.759804 0.759804 0.759804 0.759804 0.759804 0.759804 0.759804 0.759804 0.759804 0.759804 0.759804 0.759804 0.759804 0.759804 0.759804 0.759804 0.759804 0.759804 0.759804 0.759804 0.759804 0.759804 0.759804 0.759804 0.759804 0.759804 0.759804 0.759804 0.759804 0.759804 0.759804 0.759804 0.759804 0.759804 0.759804 0.759804 0.759804 0.759804 0.759804 0.759804 0.759804 0.900521 0.901985 0.905033 0.900449 0.902378 0.900222 0.893789 0.896717 0.896532 0.896353 0.897424 0.899079 0.901086 0.908421 0.917329 0.919218 0.926195 0.929628 0.929611 0.931125 0.929739 0.937214 0.934715 0.932944 0.921038 0.924450 0.926352 0.925361 0.924202 0.921027 0.927448 0.926042 0.923964 0.918681 0.914762 0.912850 0.914491 0.912280 0.912477 0.912655 0.913277 0.911483 0.912092 0.908245 0.909189 0.908089 0.904537 0.901526 0.901243 0.902631 0.900940 0.897564 0.891289 0.897250 0.897407 0.896771 0.895680 0.895890 0.896684 0.897458 0.898125 0.895685 0.895736 0.893123 0.894897 0.891143 0.886361 0.880193 0.880387 0.882875 0.890081 0.892143 0.890886 0.888118 0.879948 0.869316 0.867270 0.855181 0.820658 0.822438 0.826335 0.828546 0.829238 0.828366 0.824606 0.819982 0.811262 0.802099 0.806914 0.807530 0.799811 0.795397 0.796312 0.796907 0.804297 0.807791 0.799598 0.796651 0.799953 0.796008 0.797234 0.801119 0.794901 0.791176 0.797628 0.805826 0.806051 0.790614 0.786282 0.783914 0.771595 0.778662 0.785256 0.786043 0.787409 0.784431 0.772847 0.771266 0.764329 0.774981 0.782427 0.781681 0.776840 0.759538 0.716557 0.703491 0.672020 0.671489 0.673069 0.639244 0.639286 0.640898 0.645637 0.590418 0.568930 0.555103 0.555789 0.564369 0.569313 0.563453 0.536621 0.554917 0.551734 0.537339 0.533349 0.513085 0.498645 0.478732 0.481448 0.480741 0.472465 0.442619 0.442463 0.461868 0.470975 0.466603 0.463156 0.435131 0.414380 0.414751 0.407630 0.407656 0.413134 0.421889 0.366450 0.343135 0.328417 0.357190 0.356534 0.354971 0.370887 0.363552 0.357129 0.332536 0.311890 0.285106 0.297564 0.318059 0.322112 0.326018 0.293547 0.283168 0.266189 0.270579 0.315434 0.303515 0.324465 0.328574 0.333549 0.360748 0.333861 0.310173 0.287032 0.329916 0.333485 0.308434 0.298178 0.311936 0.326558 0.326288 0.322231 0.316325 0.363852 0.372293 0.352336 0.353005 0.319916 0.342419 0.375200 0.371602 0.376526 0.387150 0.392067 0.359842 0.291212 0.264336 0.267307 0.243374 0.242783 0.228355 0.213224 0.205096 0.217067 0.239192 0.245317 0.278069 0.247509 0.204636 0.112747 0.180410 0.097976 0.109666 0.109666 0.109666 0.109666 0.109666 0.109666 0.109666 0.109666 0.143422 0.143422 0.143422 0.143422 0.143422 0.143422 0.143422 0.143422 0.143422 0.143422 0.143422 0.143422 0.143422 0.143422 0.143422 0.143422 0.143422 0.143422 0.143422 0.143422 0.143422
0.000000 0.000000 0.000000 0.000000 0.000000 0.000000 0.000000 0.000000 0.000000 0.000000 0.000000 0.000000 0.000000 0.000000 0.000000 0.000000 0.000000 0.000000 0.000000 0.000000 0.000000 0.000000 0.000000 0.000000 0.000000 0.000000 0.000000 0.000000 0.000000 0.000000 0.000000 0.000000 0.000000 0.000000 0.000000 0.000000 0.000000 0.000000 0.000000 0.000000 0.000000 0.000000 0.000000 0.000000 0.000000 0.000000 0.000000 0.000000 0.000000 0.000000 0.000000 0.000000 0.173422 0.173422 0.173422 0.173422 0.173422 0.173422 0.173422 0.191565 0.191565 0.191565 0.191565 0.191565 0.191565 0.191565 0.191565 0.191565 0.191565 0.191565 0.191565 0.191565 0.191565 0.191565 0.191565 0.191565 0.191565 0.191565 0.191565 0.191565 0.191565 0.191565 0.191565 0.191565 0.191565 0.191565 0.191565 0.191565 0.191565 0.191565 0.191565 0.191565 0.191565 0.191565 0.191565 0.191565 0.191565 0.191565 0.191565 0.191565 0.191565 0.191565 0.191565 0.222222 0.222222 0.222222 0.222222 0.222222 0.222222 0.222222 0.222222 0.222222 0.222222 0.222222 0.222222 0.222222 0.222222 0.222222 0.222222 0.222222 0.222222 0.222222 0.222222 0.222222 0.222222 0.222222 0.222222 0.222222 0.222222 0.222222 0.222222 0.222222 0.222222 0.234082 0.234082 0.234082 0.234082 0.234082 0.234082 0.234082 0.234082 0.234082 0.234082 0.234082 0.234082 0.234082 0.234082 0.234082 0.234082 0.234082 0.234082 0.234082 0.234082 0.234082 0.234082 0.234082 0.234082 0.234082 0.244339 0.244339 0.244339 0.244339 0.244339 0.244339 0.244339 0.244339 0.244339 0.244339 0.244339 0.244339 0.244339 0.244339 0.244339 0.244339 0.244339 0.244339 0.244339 0.244339 0.244339 0.248069 0.248069 0.248069 0.248069 0.248069 0.248069 0.248069 0.248069 0.248069 0.248069 0.248069 0.248069 0.248069 0.248069 0.248069 0.248069 0.248069 0.248069 0.248069 0.256074 0.256074 0.256074 0.256074 0.256074 0.256074 0.256074 0.256074 0.256074 0.256074 0.256074 0.256074 0.256074 0.256074 0.256074 0.256074 0.256074 0.256074 0.256074 0.256074 0.256074 0.256074 0.256074 0.256074 0.256074 0.256074 0.256074 0.256074 0.256074 0.256074 0.256074 0.256074 0.256074 0.256074 0.256074 0.256074 0.256074 0.256074 0.256074 0.256074 0.256074 0.256074 0.256074 0.256074 0.256074 0.256074 0.256074 0.256074 0.256074 0.256074 0.256074 0.256074 0.256074 0.256074 0.256074 0.256074 0.256074 0.256074 0.256074 0.256074 0.256074 0.256074 0.260378 0.260378 0.260378 0.260378 0.260378 0.260378 0.260378 0.260378 0.260378 0.260378 0.260378 0.260378 0.260378 0.256074 0.256074 0.256074 0.256074 0.256074 0.256074 0.256074 0.256074 0.256074 0.256074 0.256074 0.256074 0.256074 0.260378 0.260378 0.260378 0.260378 0.260378 0.260378 0.260378 0.260378 0.260378 0.260378 0.260378 0.260378 0.251976 0.251976 0.251976 0.251976 0.251976 0.251976 0.251976 0.251976 0.251976 0.251976 0.251976 0.251976 0.256074 0.256074 0.256074 0.256074 0.256074 0.256074 0.256074 0.256074 0.256074 0.256074 0.256074 0.251976 0.251976 0.251976 0.251976 0.251976 0.251976 0.251976 0.251976 0.251976 0.251976 0.251976 0.260378 0.260378 0.260378 0.260378 0.260378 0.260378 0.260378 0.260378 0.260378 0.260378 0.244339 0.244339 0.244339 0.244339 0.244339 0.244339 0.244339 0.244339 0.244339 0.244339 0.244339 0.244339 0.244339 0.244339 0.244339 0.244339 0.244339 0.244339 0.244339 0.244339 0.244339
